8	15	41	17	65	158.0	-188369.0	-4272.0	25159.0
8	15	41	17	67	159.0	-188307.0	-4234.0	25394.0
8	15	41	17	69	160.0	-187987.0	-4217.0	26004.0
8	15	41	17	70	161.0	-188232.0	-4162.0	26530.0
8	15	41	17	72	162.0	-188936.0	-4122.0	26902.0
8	15	41	17	85	163.0	-188908.0	-4104.0	27150.0
8	15	41	17	86	164.0	-188739.0	-4057.0	27713.0
8	15	41	17	87	165.0	-188694.0	-4025.0	28094.0
8	15	41	17	88	166.0	-188453.0	-3991.0	28557.0
8	15	41	17	88	167.0	-187910.0	-3964.0	29140.0
8	15	41	17	89	168.0	-187491.0	-3940.0	29410.0
8	15	41	17	90	169.0	-186742.0	-3900.0	29609.0
8	15	41	17	90	170.0	-186201.0	-3876.0	30096.0
8	15	41	17	91	171.0	-186689.0	-3837.0	30369.0
8	15	41	17	91	172.0	-187202.0	-3803.0	30679.0
8	15	41	17	92	173.0	-187915.0	-3788.0	31163.0
8	15	41	17	92	174.0	-188871.0	-3766.0	31489.0
8	15	41	17	93	175.0	-190016.0	-3724.0	31771.0
8	15	41	17	94	176.0	-191552.0	-3692.0	32141.0
8	15	41	17	94	177.0	-194024.0	-3664.0	32256.0
8	15	41	17	113	178.0	-197673.0	-3646.0	32521.0
8	15	41	17	114	179.0	-201906.0	-3634.0	33137.0
8	15	41	17	138	180.0	-206219.0	-3619.0	33081.0
8	15	41	17	167	181.0	-208350.0	-3586.0	33099.0
8	15	41	17	168	182.0	-212983.0	-3564.0	33714.0
8	15	41	17	168	183.0	-210211.0	-3553.0	33996.0
8	15	41	17	169	184.0	-202102.0	-3530.0	33961.0
8	15	41	17	170	185.0	-199159.0	-3497.0	34245.0
8	15	41	17	170	186.0	-195807.0	-3482.0	34459.0
8	15	41	17	171	187.0	-195444.0	-3467.0	34633.0
8	15	41	17	172	188.0	-200187.0	-3438.0	34643.0
8	15	41	17	172	189.0	-205017.0	-3423.0	34991.0
8	15	41	17	173	190.0	-204850.0	-3404.0	34636.0
8	15	41	17	173	191.0	-199457.0	-3387.0	34805.0
8	15	41	17	174	192.0	-194166.0	-3371.0	35210.0
8	15	41	17	174	193.0	-188927.0	-3359.0	35224.0
8	15	41	17	175	194.0	-181417.0	-3347.0	35206.0
8	15	41	17	176	195.0	-172331.0	-3334.0	35743.0
8	15	41	17	176	214.0	-154111.0	-3207.0	37464.0
8	15	41	17	177	215.0	-153956.0	-3212.0	37694.0
8	15	41	17	177	216.0	-153407.0	-3214.0	37917.0
8	15	41	17	178	217.0	-153659.0	-3205.0	38135.0
8	15	41	17	179	218.0	-154232.0	-3199.0	38078.0
8	15	41	17	179	219.0	-154981.0	-3198.0	37988.0
8	15	41	17	212	220.0	-155569.0	-3189.0	38097.0
8	15	41	17	213	221.0	-156502.0	-3184.0	38374.0
8	15	41	17	213	222.0	-157976.0	-3203.0	38126.0
8	15	41	17	214	223.0	-159462.0	-3201.0	38213.0
8	15	41	17	215	224.0	-161352.0	-3182.0	38458.0
8	15	41	17	215	225.0	-163492.0	-3181.0	38688.0
8	15	41	17	216	226.0	-165640.0	-3181.0	38971.0
8	15	41	17	304	227.0	-167384.0	-3191.0	39018.0
8	15	41	17	304	228.0	-169309.0	-3185.0	38998.0
8	15	41	17	347	229.0	-171619.0	-3187.0	39173.0
8	15	41	17	348	230.0	-174157.0	-3183.0	39413.0
8	15	41	17	348	231.0	-177373.0	-3188.0	39719.0
8	15	41	17	349	232.0	-180579.0	-3196.0	39766.0
8	15	41	17	350	233.0	-184312.0	-3207.0	39721.0
8	15	41	17	350	234.0	-187657.0	-3200.0	40144.0
8	15	41	17	351	236.0	-193889.0	-3173.0	40392.0
8	15	41	17	351	237.0	-196283.0	-3191.0	40721.0
8	15	41	17	352	238.0	-198714.0	-3182.0	40791.0
8	15	41	17	352	239.0	-200784.0	-3186.0	40609.0
8	15	41	17	353	240.0	-202620.0	-3172.0	40801.0
8	15	41	17	354	241.0	-204258.0	-3181.0	41049.0
8	15	41	17	354	242.0	-205439.0	-3192.0	41228.0
8	15	41	17	355	243.0	-206305.0	-3175.0	41324.0
8	15	41	17	355	25.0	-178839.0	-3067.0	46616.0
8	15	41	17	356	26.0	-177672.0	-3061.0	46454.0
8	15	41	17	357	48.0	-197797.0	-2860.0	49198.0
8	15	41	17	357	49.0	-199629.0	-2857.0	49376.0
8	15	41	17	358	50.0	-200766.0	-2829.0	49444.0
8	15	41	17	358	51.0	-201084.0	-2808.0	49464.0
8	15	41	17	359	52.0	-201458.0	-2809.0	49546.0
8	15	41	17	359	53.0	-201664.0	-2802.0	49854.0
8	15	41	17	392	54.0	-201319.0	-2804.0	49862.0
8	15	41	17	392	55.0	-200887.0	-2784.0	49498.0
8	15	41	17	393	56.0	-200932.0	-2786.0	49791.0
8	15	41	17	393	57.0	-201128.0	-2782.0	49963.0
8	15	41	17	394	58.0	-201324.0	-2778.0	49901.0
8	15	41	17	395	59.0	-201869.0	-2763.0	50006.0
8	15	41	17	395	60.0	-201878.0	-2751.0	50048.0
8	15	41	17	396	61.0	-201656.0	-2736.0	49713.0
8	15	41	17	396	62.0	-201205.0	-2720.0	49985.0
8	15	41	17	397	63.0	-200751.0	-2706.0	50212.0
8	15	41	17	397	64.0	-200135.0	-2697.0	49858.0
8	15	41	17	398	65.0	-198829.0	-2687.0	50114.0
8	15	41	17	399	66.0	-197277.0	-2686.0	50366.0
8	15	41	17	399	67.0	-196053.0	-2664.0	50446.0
8	15	41	17	400	68.0	-195457.0	-2666.0	50441.0
8	15	41	17	400	70.0	-195054.0	-2639.0	50352.0
8	15	41	17	401	71.0	-195249.0	-2631.0	50308.0
8	15	41	17	402	72.0	-195242.0	-2615.0	50410.0
8	15	41	17	402	73.0	-195344.0	-2632.0	50826.0
8	15	41	17	403	74.0	-196057.0	-2618.0	50766.0
8	15	41	17	403	75.0	-196722.0	-2613.0	50843.0
8	15	41	17	437	76.0	-197154.0	-2607.0	51381.0
8	15	41	17	438	77.0	-198047.0	-2592.0	51301.0
8	15	41	17	439	78.0	-198976.0	-2602.0	51148.0
8	15	41	17	440	79.0	-199874.0	-2589.0	51386.0
8	15	41	17	440	80.0	-201281.0	-2576.0	51632.0
8	15	41	17	441	81.0	-202736.0	-2576.0	51786.0
8	15	41	17	441	82.0	-203872.0	-2574.0	51884.0
8	15	41	17	442	83.0	-204469.0	-2577.0	51827.0
8	15	41	17	442	84.0	-205617.0	-2580.0	52181.0
8	15	41	17	443	85.0	-206484.0	-2587.0	52297.0
8	15	41	17	444	86.0	-206714.0	-2557.0	52313.0
8	15	41	17	444	87.0	-206801.0	-2552.0	52425.0
8	15	41	17	445	88.0	-206396.0	-2558.0	52801.0
8	15	41	17	445	89.0	-205484.0	-2552.0	52566.0
8	15	41	17	446	90.0	-204629.0	-2531.0	52418.0
8	15	41	17	447	93.0	-203614.0	-2517.0	53021.0
8	15	41	17	448	94.0	-203690.0	-2524.0	53319.0
8	15	41	17	448	95.0	-203807.0	-2536.0	53361.0
8	15	41	17	449	96.0	-203160.0	-2529.0	53199.0
8	15	41	17	449	97.0	-201919.0	-2521.0	53470.0
8	15	41	17	450	98.0	-200743.0	-2514.0	53394.0
8	15	41	17	483	99.0	-199292.0	-2517.0	52944.0
8	15	41	17	484	100.0	-197466.0	-2517.0	52798.0
8	15	41	17	485	101.0	-195982.0	-2515.0	52750.0
8	15	41	17	485	102.0	-194285.0	-2511.0	52516.0
8	15	41	17	486	103.0	-192306.0	-2522.0	52051.0
8	15	41	17	486	104.0	-190551.0	-2513.0	51886.0
8	15	41	17	487	105.0	-189744.0	-2519.0	52135.0
8	15	41	17	488	106.0	-188596.0	-2527.0	52441.0
8	15	41	17	488	107.0	-186472.0	-2517.0	52403.0
8	15	41	17	489	108.0	-184331.0	-2521.0	52117.0
8	15	41	17	489	109.0	-182484.0	-2509.0	52311.0
8	15	41	17	490	110.0	-181079.0	-2500.0	52180.0
8	15	41	17	572	111.0	-179723.0	-2502.0	51974.0
8	15	41	17	664	112.0	-179107.0	-2475.0	52048.0
8	15	41	17	665	113.0	-178819.0	-2489.0	52292.0
8	15	41	17	665	115.0	-177820.0	-2503.0	52161.0
8	15	41	17	666	116.0	-177664.0	-2519.0	52740.0
8	15	41	17	666	117.0	-177224.0	-2515.0	52961.0
8	15	41	17	667	118.0	-176643.0	-2529.0	52684.0
8	15	41	17	667	119.0	-176392.0	-2517.0	53055.0
8	15	41	17	668	120.0	-176146.0	-2501.0	52899.0
8	15	41	17	668	121.0	-175550.0	-2500.0	52626.0
8	15	41	17	669	122.0	-175229.0	-2489.0	52908.0
8	15	41	17	669	123.0	-175424.0	-2497.0	53223.0
8	15	41	17	670	124.0	-175561.0	-2518.0	53294.0
8	15	41	17	671	125.0	-175697.0	-2526.0	53532.0
8	15	41	17	671	126.0	-176495.0	-2514.0	53862.0
8	15	41	17	672	160.0	-197776.0	-2662.0	57993.0
8	15	41	17	672	205.0	-227246.0	-2830.0	62389.0
8	15	41	17	673	206.0	-230127.0	-2836.0	62388.0
8	15	41	17	673	207.0	-233189.0	-2834.0	62354.0
8	15	41	17	674	208.0	-236343.0	-2839.0	62562.0
8	15	41	17	674	209.0	-239300.0	-2852.0	61878.0
8	15	41	17	675	210.0	-241749.0	-2852.0	61609.0
8	15	41	17	708	211.0	-243246.0	-2851.0	61609.0
8	15	41	17	709	212.0	-243351.0	-2836.0	60966.0
8	15	41	17	709	213.0	-242338.0	-2828.0	60884.0
8	15	41	17	710	214.0	-240294.0	-2851.0	60928.0
8	15	41	17	710	215.0	-237281.0	-2851.0	61129.0
8	15	41	17	711	216.0	-233599.0	-2842.0	61133.0
8	15	41	17	712	217.0	-229329.0	-2820.0	61934.0
8	15	41	17	712	218.0	-225195.0	-2824.0	63093.0
8	15	41	17	753	219.0	-220882.0	-2842.0	63684.0
8	15	41	17	754	220.0	-216574.0	-2822.0	64294.0
8	15	41	17	754	221.0	-212408.0	-2825.0	64732.0
8	15	41	17	755	222.0	-208282.0	-2811.0	64611.0
8	15	41	17	755	223.0	-204139.0	-2802.0	63486.0
8	15	41	17	756	224.0	-199725.0	-2797.0	61451.0
8	15	41	17	756	225.0	-195366.0	-2796.0	58004.0
8	15	41	17	757	227.0	-189752.0	-2810.0	49581.0
8	15	41	17	758	228.0	-189237.0	-2807.0	45346.0
8	15	41	17	758	229.0	-190428.0	-2786.0	41256.0
8	15	41	17	759	230.0	-193248.0	-2784.0	37331.0
8	15	41	17	759	231.0	-196501.0	-2776.0	31735.0
8	15	41	17	760	232.0	-199429.0	-2786.0	24549.0
8	15	41	17	761	233.0	-201339.0	-2786.0	16801.0
8	15	41	17	761	234.0	-201754.0	-2782.0	9042.0
8	15	41	17	762	235.0	-200159.0	-2797.0	1968.0
8	15	41	17	762	250.0	-85473.0	-2701.0	61769.0
8	15	41	17	763	251.0	-99298.0	-2699.0	61546.0
8	15	41	17	764	252.0	-125205.0	-2684.0	61443.0
8	15	41	17	765	253.0	-151823.0	-2677.0	61812.0
8	15	41	17	766	254.0	-171942.0	-2668.0	62081.0
8	15	41	17	767	255.0	-182582.0	-2675.0	61674.0
8	15	41	17	798	0.0	-183941.0	-2676.0	61597.0
8	15	41	17	799	1.0	-186094.0	-2677.0	61516.0
8	15	41	17	799	2.0	-196704.0	-2657.0	61266.0
8	15	41	17	800	3.0	-211880.0	-2642.0	61184.0
8	15	41	17	800	4.0	-222476.0	-2637.0	61006.0
8	15	41	17	801	5.0	-220314.0	-2625.0	60579.0
8	15	41	17	802	6.0	-204969.0	-2629.0	60318.0
8	15	41	17	802	7.0	-186739.0	-2634.0	60333.0
8	15	41	17	803	8.0	-175102.0	-2613.0	60359.0
8	15	41	17	803	9.0	-171530.0	-2604.0	60072.0
8	15	41	17	804	10.0	-173154.0	-2603.0	59673.0
8	15	41	17	804	11.0	-177539.0	-2589.0	59623.0
8	15	41	17	805	12.0	-183789.0	-2581.0	59839.0
8	15	41	17	805	13.0	-190653.0	-2579.0	59368.0
8	15	41	17	806	14.0	-195397.0	-2574.0	59323.0
8	15	41	17	807	16.0	-199362.0	-2547.0	58779.0
8	15	41	17	807	17.0	-201182.0	-2541.0	58696.0
8	15	41	17	808	18.0	-201002.0	-2519.0	58869.0
8	15	41	17	808	19.0	-197477.0	-2527.0	58924.0
8	15	41	17	809	20.0	-191112.0	-2524.0	58565.0
8	15	41	17	809	21.0	-183132.0	-2496.0	58691.0
8	15	41	17	810	22.0	-174420.0	-2502.0	59276.0
8	15	41	17	842	23.0	-165799.0	-2491.0	58918.0
8	15	41	17	843	24.0	-158055.0	-2479.0	58577.0
8	15	41	17	843	25.0	-151481.0	-2491.0	58514.0
8	15	41	17	844	26.0	-146709.0	-2474.0	58344.0
8	15	41	17	845	27.0	-144879.0	-2462.0	57903.0
8	15	41	17	845	28.0	-145686.0	-2465.0	58059.0
8	15	41	17	846	29.0	-148445.0	-2461.0	58048.0
8	15	41	17	853	30.0	-153856.0	-2444.0	57856.0
8	15	41	17	854	31.0	-160453.0	-2448.0	57820.0
8	15	41	17	855	32.0	-168827.0	-2452.0	57853.0
8	15	41	17	855	33.0	-178151.0	-2441.0	57873.0
8	15	41	17	856	34.0	-187921.0	-2435.0	57701.0
8	15	41	17	856	35.0	-197301.0	-2435.0	57788.0
8	15	41	17	857	36.0	-205158.0	-2429.0	57710.0
8	15	41	17	857	37.0	-211212.0	-2426.0	57791.0
8	15	41	17	858	39.0	-218176.0	-2408.0	57947.0
8	15	41	17	859	40.0	-218837.0	-2393.0	57955.0
8	15	41	17	859	41.0	-217995.0	-2411.0	57756.0
8	15	41	17	860	42.0	-215803.0	-2431.0	57664.0
8	15	41	17	860	43.0	-212067.0	-2429.0	57614.0
8	15	41	17	861	44.0	-207036.0	-2431.0	57541.0
8	15	41	17	979	45.0	-201386.0	-2444.0	57032.0
8	15	41	17	980	46.0	-195433.0	-2437.0	56899.0
8	15	41	17	980	47.0	-189869.0	-2439.0	57135.0
8	15	41	18	23	48.0	-184843.0	-2446.0	57086.0
8	15	41	18	24	49.0	-180195.0	-2439.0	56586.0
8	15	41	18	25	50.0	-176460.0	-2446.0	56713.0
8	15	41	18	25	51.0	-173825.0	-2455.0	56483.0
8	15	41	18	26	52.0	-172874.0	-2455.0	56512.0
8	15	41	18	27	53.0	-173230.0	-2452.0	56701.0
8	15	41	18	27	54.0	-174517.0	-2453.0	56488.0
8	15	41	18	28	55.0	-176356.0	-2448.0	56001.0
8	15	41	18	28	56.0	-179022.0	-2474.0	56160.0
8	15	41	18	29	57.0	-182121.0	-2475.0	56440.0
8	15	41	18	30	58.0	-184727.0	-2463.0	56167.0
8	15	41	18	30	59.0	-187155.0	-2487.0	55904.0
8	15	41	18	31	61.0	-190446.0	-2482.0	56122.0
8	15	41	18	31	106.0	-201591.0	-2200.0	52598.0
8	15	41	18	32	107.0	-202461.0	-2187.0	52421.0
8	15	41	18	32	108.0	-203459.0	-2164.0	52463.0
8	15	41	18	33	129.0	-205954.0	-1522.0	57413.0
8	15	41	18	34	130.0	-205129.0	-1486.0	57843.0
8	15	41	18	34	131.0	-204550.0	-1459.0	58035.0
8	15	41	18	35	132.0	-204156.0	-1425.0	58154.0
8	15	41	18	35	133.0	-203977.0	-1402.0	58617.0
8	15	41	18	36	134.0	-204493.0	-1384.0	58751.0
8	15	41	18	68	135.0	-205554.0	-1372.0	58875.0
8	15	41	18	69	136.0	-207422.0	-1352.0	59075.0
8	15	41	18	69	137.0	-210348.0	-1339.0	59399.0
8	15	41	18	70	138.0	-214114.0	-1344.0	59569.0
8	15	41	18	70	139.0	-218798.0	-1327.0	59821.0
8	15	41	18	71	140.0	-224142.0	-1302.0	59736.0
8	15	41	18	112	141.0	-230601.0	-1297.0	60149.0
8	15	41	18	113	142.0	-237564.0	-1275.0	60496.0
8	15	41	18	114	143.0	-242684.0	-1270.0	60342.0
8	15	41	18	114	144.0	-249735.0	-1254.0	59974.0
8	15	41	18	115	145.0	-247430.0	-1227.0	60466.0
8	15	41	18	115	146.0	-240902.0	-1216.0	60844.0
8	15	41	18	116	147.0	-241223.0	-1207.0	60592.0
8	15	41	18	117	148.0	-240190.0	-1204.0	60696.0
8	15	41	18	117	149.0	-242349.0	-1213.0	60991.0
8	15	41	18	118	151.0	-256855.0	-1192.0	61109.0
8	15	41	18	118	152.0	-258566.0	-1176.0	61420.0
8	15	41	18	119	153.0	-254131.0	-1166.0	61823.0
8	15	41	18	119	154.0	-250141.0	-1178.0	61627.0
8	15	41	18	120	155.0	-246559.0	-1186.0	61881.0
8	15	41	18	121	156.0	-240226.0	-1183.0	61829.0
8	15	41	18	121	157.0	-232897.0	-1177.0	61645.0
8	15	41	18	122	174.0	-217799.0	-1254.0	62867.0
8	15	41	18	123	175.0	-216866.0	-1261.0	62840.0
8	15	41	18	123	176.0	-216012.0	-1283.0	62595.0
8	15	41	18	124	177.0	-215562.0	-1280.0	62396.0
8	15	41	18	125	178.0	-215202.0	-1295.0	62413.0
8	15	41	18	125	179.0	-214739.0	-1304.0	62557.0
8	15	41	18	156	180.0	-213714.0	-1329.0	62596.0
8	15	41	18	157	181.0	-212215.0	-1334.0	62978.0
8	15	41	18	158	182.0	-211334.0	-1343.0	62668.0
8	15	41	18	158	183.0	-210931.0	-1350.0	62673.0
8	15	41	18	159	184.0	-210981.0	-1369.0	62812.0
8	15	41	18	160	185.0	-212287.0	-1370.0	62997.0
8	15	41	18	161	186.0	-215049.0	-1371.0	62965.0
8	15	41	18	161	187.0	-219441.0	-1378.0	63455.0
8	15	41	18	162	188.0	-225397.0	-1416.0	63928.0
8	15	41	18	162	189.0	-231571.0	-1422.0	64074.0
8	15	41	18	163	190.0	-237947.0	-1437.0	64369.0
8	15	41	18	164	191.0	-244961.0	-1437.0	64811.0
8	15	41	18	164	192.0	-251677.0	-1444.0	64689.0
8	15	41	18	165	193.0	-255862.0	-1448.0	64993.0
8	15	41	18	165	194.0	-258726.0	-1464.0	65109.0
8	15	41	18	166	196.0	-275237.0	-1489.0	65312.0
8	15	41	18	167	197.0	-282281.0	-1523.0	65234.0
8	15	41	18	168	198.0	-287747.0	-1545.0	65395.0
8	15	41	18	168	199.0	-292281.0	-1566.0	65793.0
8	15	41	18	169	200.0	-295529.0	-1589.0	66036.0
8	15	41	18	169	201.0	-297701.0	-1601.0	66146.0
8	15	41	18	203	202.0	-300081.0	-1614.0	66405.0
8	15	41	18	204	203.0	-302010.0	-1627.0	66231.0
8	15	41	18	205	204.0	-302772.0	-1662.0	65791.0
8	15	41	18	205	205.0	-302790.0	-1695.0	66228.0
8	15	41	18	206	206.0	-301951.0	-1709.0	66163.0
8	15	41	18	206	207.0	-300624.0	-1723.0	66003.0
8	15	41	18	207	208.0	-299196.0	-1741.0	66576.0
8	15	41	18	338	209.0	-298305.0	-1778.0	66789.0
8	15	41	18	339	210.0	-298506.0	-1821.0	67095.0
8	15	41	18	340	211.0	-299844.0	-1829.0	66954.0
8	15	41	18	340	212.0	-302787.0	-1849.0	67136.0
8	15	41	18	341	213.0	-305472.0	-1873.0	67719.0
8	15	41	18	342	214.0	-305319.0	-1899.0	67529.0
8	15	41	18	342	215.0	-304787.0	-1924.0	67579.0
8	15	41	18	343	216.0	-303729.0	-1958.0	67760.0
8	15	41	18	344	218.0	-299137.0	-2034.0	68072.0
8	15	41	18	344	219.0	-297053.0	-2077.0	68772.0
8	15	41	18	352	220.0	-295647.0	-2102.0	68646.0
8	15	41	18	353	221.0	-294602.0	-2124.0	68518.0
8	15	41	18	354	222.0	-294329.0	-2142.0	68935.0
8	15	41	18	354	223.0	-294319.0	-2187.0	69143.0
8	15	41	18	355	224.0	-293999.0	-2217.0	68720.0
8	15	41	18	355	30.0	-194626.0	-4713.0	66796.0
8	15	41	18	356	31.0	-194561.0	-4736.0	66935.0
8	15	41	18	357	32.0	-194552.0	-4764.0	66586.0
8	15	41	18	357	33.0	-194862.0	-4803.0	66570.0
8	15	41	18	358	34.0	-195150.0	-4846.0	66708.0
8	15	41	18	358	35.0	-195527.0	-4887.0	66828.0
8	15	41	18	383	36.0	-195630.0	-4939.0	66497.0
8	15	41	18	383	37.0	-195824.0	-4956.0	66361.0
8	15	41	18	384	38.0	-195832.0	-4987.0	66191.0
8	15	41	18	385	39.0	-195707.0	-5016.0	66218.0
8	15	41	18	385	40.0	-195414.0	-5055.0	65984.0
8	15	41	18	386	41.0	-195230.0	-5106.0	65904.0
8	15	41	18	387	42.0	-195318.0	-5146.0	65873.0
8	15	41	18	387	43.0	-195143.0	-5167.0	66066.0
8	15	41	18	388	44.0	-194736.0	-5214.0	66121.0
8	15	41	18	389	45.0	-193909.0	-5241.0	66304.0
8	15	41	18	389	46.0	-192867.0	-5256.0	66384.0
8	15	41	18	390	47.0	-191964.0	-5301.0	66571.0
8	15	41	18	391	48.0	-190786.0	-5331.0	66662.0
8	15	41	18	391	49.0	-189442.0	-5360.0	66699.0
8	15	41	18	392	50.0	-188269.0	-5380.0	66629.0
8	15	41	18	393	52.0	-186201.0	-5469.0	66765.0
8	15	41	18	393	53.0	-184752.0	-5492.0	66610.0
8	15	41	18	394	54.0	-183052.0	-5530.0	66701.0
8	15	41	18	394	55.0	-181055.0	-5554.0	66820.0
8	15	41	18	428	56.0	-179171.0	-5590.0	66371.0
8	15	41	18	428	57.0	-177572.0	-5610.0	66221.0
8	15	41	18	429	58.0	-175951.0	-5647.0	66274.0
8	15	41	18	429	59.0	-173881.0	-5684.0	66349.0
8	15	41	18	430	60.0	-170727.0	-5704.0	66276.0
8	15	41	18	431	61.0	-167762.0	-5737.0	66289.0
8	15	41	18	431	62.0	-166548.0	-5770.0	66601.0
8	15	41	18	432	63.0	-166779.0	-5791.0	66409.0
8	15	41	18	432	64.0	-167446.0	-5807.0	66316.0
8	15	41	18	433	65.0	-167863.0	-5844.0	66904.0
8	15	41	18	434	66.0	-167911.0	-5870.0	66733.0
8	15	41	18	434	67.0	-167408.0	-5879.0	66520.0
8	15	41	18	435	68.0	-165903.0	-5939.0	66721.0
8	15	41	18	435	69.0	-163767.0	-5951.0	66637.0
8	15	41	18	436	70.0	-161214.0	-5967.0	66601.0
8	15	41	18	437	74.0	-151265.0	-6087.0	66820.0
8	15	41	18	437	75.0	-149625.0	-6116.0	66684.0
8	15	41	18	438	76.0	-148258.0	-6147.0	66844.0
8	15	41	18	438	77.0	-146132.0	-6158.0	66736.0
8	15	41	18	439	78.0	-143895.0	-6174.0	66521.0
8	15	41	18	439	79.0	-143006.0	-6206.0	66674.0
8	15	41	18	440	80.0	-141956.0	-6217.0	66914.0
8	15	41	18	473	81.0	-140540.0	-6253.0	66851.0
8	15	41	18	473	82.0	-137724.0	-6284.0	66972.0
8	15	41	18	474	83.0	-135357.0	-6304.0	67576.0
8	15	41	18	475	84.0	-133597.0	-6328.0	67459.0
8	15	41	18	475	85.0	-133243.0	-6364.0	67049.0
8	15	41	18	476	86.0	-133034.0	-6385.0	67036.0
8	15	41	18	476	87.0	-132317.0	-6384.0	67408.0
8	15	41	18	477	88.0	-131577.0	-6391.0	67331.0
8	15	41	18	478	89.0	-130414.0	-6418.0	67641.0
8	15	41	18	478	90.0	-129447.0	-6445.0	67831.0
8	15	41	18	479	91.0	-129049.0	-6432.0	67589.0
8	15	41	18	480	92.0	-129036.0	-6454.0	67513.0
8	15	41	18	480	93.0	-129052.0	-6476.0	67566.0
8	15	41	18	481	94.0	-129027.0	-6483.0	67623.0
8	15	41	18	481	95.0	-128964.0	-6509.0	67323.0
8	15	41	18	482	97.0	-127911.0	-6521.0	67794.0
8	15	41	18	482	98.0	-126804.0	-6542.0	67509.0
8	15	41	18	483	99.0	-125651.0	-6557.0	67427.0
8	15	41	18	484	100.0	-124414.0	-6576.0	67682.0
8	15	41	18	484	101.0	-123187.0	-6582.0	67694.0
8	15	41	18	485	102.0	-121849.0	-6588.0	67583.0
8	15	41	18	518	103.0	-120371.0	-6602.0	67534.0
8	15	41	18	519	104.0	-118942.0	-6634.0	67410.0
8	15	41	18	520	105.0	-117167.0	-6622.0	67099.0
8	15	41	18	520	106.0	-115268.0	-6617.0	67288.0
8	15	41	18	521	107.0	-113222.0	-6603.0	67258.0
8	15	41	18	521	108.0	-110956.0	-6619.0	67309.0
8	15	41	18	522	109.0	-109154.0	-6644.0	67177.0
8	15	41	18	523	110.0	-107786.0	-6638.0	67375.0
8	15	41	18	523	111.0	-106916.0	-6632.0	67513.0
8	15	41	18	524	112.0	-106125.0	-6621.0	67743.0
8	15	41	18	525	113.0	-105614.0	-6636.0	67594.0
8	15	41	18	526	114.0	-106217.0	-6637.0	67633.0
8	15	41	18	526	115.0	-108192.0	-6625.0	67909.0
8	15	41	18	527	116.0	-111038.0	-6614.0	67810.0
8	15	41	18	528	117.0	-114134.0	-6618.0	67404.0
8	15	41	18	528	119.0	-119789.0	-6624.0	68096.0
8	15	41	18	529	120.0	-122537.0	-6617.0	67605.0
8	15	41	18	529	121.0	-125228.0	-6624.0	67265.0
8	15	41	18	530	122.0	-127929.0	-6613.0	67695.0
8	15	41	18	531	123.0	-130079.0	-6627.0	67633.0
8	15	41	18	531	124.0	-131573.0	-6620.0	67518.0
8	15	41	18	532	125.0	-131821.0	-6597.0	67729.0
8	15	41	18	654	126.0	-132197.0	-6582.0	67456.0
8	15	41	18	655	127.0	-133084.0	-6564.0	67574.0
8	15	41	18	656	128.0	-133744.0	-6579.0	67688.0
8	15	41	18	656	129.0	-134026.0	-6575.0	67847.0
8	15	41	18	657	130.0	-133486.0	-6571.0	67731.0
8	15	41	18	658	131.0	-131697.0	-6562.0	68020.0
8	15	41	18	658	132.0	-130237.0	-6555.0	68183.0
8	15	41	18	659	133.0	-128976.0	-6547.0	67821.0
8	15	41	18	660	134.0	-127388.0	-6528.0	67796.0
8	15	41	18	660	135.0	-124916.0	-6512.0	67793.0
8	15	41	18	661	136.0	-115707.0	-6515.0	67577.0
8	15	41	18	661	137.0	-109975.0	-6501.0	67573.0
8	15	41	18	662	138.0	-108182.0	-6487.0	67523.0
8	15	41	18	662	139.0	-107176.0	-6499.0	67529.0
8	15	41	18	663	140.0	-106945.0	-6504.0	67835.0
8	15	41	18	664	142.0	-108136.0	-6470.0	67118.0
8	15	41	18	664	187.0	-165266.0	-5889.0	67363.0
8	15	41	18	665	188.0	-167949.0	-5880.0	67285.0
8	15	41	18	665	189.0	-171657.0	-5866.0	67189.0
8	15	41	18	666	190.0	-176650.0	-5856.0	67016.0
8	15	41	18	667	191.0	-182796.0	-5851.0	66919.0
8	15	41	18	667	192.0	-189589.0	-5834.0	66810.0
8	15	41	18	699	193.0	-196478.0	-5812.0	66910.0
8	15	41	18	701	194.0	-203386.0	-5805.0	66889.0
8	15	41	18	701	195.0	-209769.0	-5799.0	66801.0
8	15	41	18	702	196.0	-215742.0	-5812.0	66919.0
8	15	41	18	703	197.0	-220505.0	-5787.0	66543.0
8	15	41	18	703	198.0	-223736.0	-5752.0	66201.0
8	15	41	18	704	199.0	-225319.0	-5750.0	66046.0
8	15	41	18	705	200.0	-225577.0	-5746.0	66411.0
8	15	41	18	705	201.0	-224631.0	-5733.0	66837.0
8	15	41	18	706	202.0	-222191.0	-5722.0	67495.0
8	15	41	18	707	203.0	-218886.0	-5702.0	68505.0
8	15	41	18	707	204.0	-215709.0	-5687.0	69498.0
8	15	41	18	708	205.0	-212194.0	-5671.0	69993.0
8	15	41	18	708	206.0	-208878.0	-5669.0	70065.0
8	15	41	18	709	207.0	-205722.0	-5647.0	70341.0
8	15	41	18	710	209.0	-200166.0	-5619.0	67065.0
8	15	41	18	710	210.0	-197461.0	-5615.0	64153.0
8	15	41	18	711	211.0	-196277.0	-5602.0	60734.0
8	15	41	18	711	212.0	-197142.0	-5593.0	56297.0
8	15	41	18	712	213.0	-199957.0	-5591.0	52274.0
8	15	41	18	712	214.0	-204227.0	-5571.0	48696.0
8	15	41	18	743	215.0	-209971.0	-5576.0	44438.0
8	15	41	18	744	216.0	-216082.0	-5554.0	38999.0
8	15	41	18	745	217.0	-221471.0	-5539.0	32608.0
8	15	41	18	745	218.0	-225292.0	-5548.0	24706.0
8	15	41	18	746	219.0	-227654.0	-5538.0	16613.0
8	15	41	18	746	220.0	-227124.0	-5531.0	9429.0
8	15	41	18	747	221.0	-223152.0	-5531.0	2894.0
8	15	41	18	748	222.0	-215957.0	-5521.0	-1822.0
8	15	41	18	748	223.0	-205637.0	-5503.0	-2284.0
8	15	41	18	749	224.0	-193977.0	-5492.0	215.0
8	15	41	18	750	225.0	-182064.0	-5471.0	7914.0
8	15	41	18	750	226.0	-171983.0	-5471.0	18399.0
8	15	41	18	751	227.0	-164639.0	-5463.0	31685.0
8	15	41	18	752	228.0	-160412.0	-5441.0	46023.0
8	15	41	18	752	229.0	-155767.0	-5433.0	58134.0
8	15	41	18	753	232.0	-119894.0	-5397.0	68422.0
8	15	41	18	753	233.0	-106158.0	-5380.0	67656.0
8	15	41	18	754	234.0	-94538.0	-5360.0	67079.0
8	15	41	18	754	235.0	-90411.0	-5341.0	67198.0
8	15	41	18	755	236.0	-100576.0	-5330.0	67504.0
8	15	41	18	756	237.0	-124472.0	-5307.0	67535.0
8	15	41	18	787	238.0	-152706.0	-5301.0	67723.0
8	15	41	18	788	239.0	-176536.0	-5279.0	67679.0
8	15	41	18	789	240.0	-191962.0	-5258.0	67233.0
8	15	41	18	789	241.0	-199109.0	-5227.0	66840.0
8	15	41	18	790	242.0	-206694.0	-5202.0	67126.0
8	15	41	18	791	243.0	-225194.0	-5191.0	67125.0
8	15	41	18	791	244.0	-250320.0	-5173.0	66600.0
8	15	41	18	792	245.0	-271849.0	-5152.0	66538.0
8	15	41	18	793	246.0	-279631.0	-5114.0	66880.0
8	15	41	18	793	247.0	-270451.0	-5092.0	66272.0
8	15	41	18	794	248.0	-255192.0	-5074.0	66477.0
8	15	41	18	795	249.0	-246559.0	-5052.0	66356.0
8	15	41	18	796	250.0	-245819.0	-5027.0	66036.0
8	15	41	18	797	251.0	-248676.0	-5014.0	65978.0
8	15	41	18	797	252.0	-253591.0	-4994.0	65799.0
8	15	41	18	798	254.0	-265321.0	-4926.0	65321.0
8	15	41	18	798	255.0	-270494.0	-4897.0	65042.0
8	15	41	18	799	0.0	-273867.0	-4881.0	64698.0
8	15	41	18	800	1.0	-276176.0	-4852.0	64669.0
8	15	41	18	800	2.0	-278151.0	-4817.0	64611.0
8	15	41	18	801	3.0	-279077.0	-4797.0	64591.0
8	15	41	18	801	4.0	-277124.0	-4779.0	64779.0
8	15	41	18	833	5.0	-272064.0	-4745.0	64691.0
8	15	41	18	834	6.0	-265082.0	-4713.0	64579.0
8	15	41	18	834	7.0	-257416.0	-4686.0	64702.0
8	15	41	18	835	8.0	-249769.0	-4651.0	64907.0
8	15	41	18	836	9.0	-242532.0	-4636.0	64539.0
8	15	41	18	836	10.0	-235249.0	-4616.0	64411.0
8	15	41	18	837	11.0	-228204.0	-4589.0	64489.0
8	15	41	18	838	12.0	-223504.0	-4559.0	64396.0
8	15	41	18	838	13.0	-221827.0	-4541.0	64121.0
8	15	41	18	839	14.0	-221326.0	-4504.0	64238.0
8	15	41	18	840	15.0	-223733.0	-4478.0	64551.0
8	15	41	18	840	16.0	-227204.0	-4452.0	64249.0
8	15	41	18	841	17.0	-231692.0	-4448.0	64074.0
8	15	41	18	841	18.0	-237741.0	-4424.0	64373.0
8	15	41	18	842	19.0	-244885.0	-4373.0	64160.0
8	15	41	18	843	21.0	-261417.0	-4359.0	63836.0
8	15	41	18	843	22.0	-268679.0	-4358.0	63387.0
8	15	41	18	844	23.0	-275251.0	-4341.0	63004.0
8	15	41	18	844	24.0	-281002.0	-4311.0	63388.0
8	15	41	18	845	25.0	-285459.0	-4302.0	63826.0
8	15	41	18	846	26.0	-287779.0	-4309.0	63581.0
8	15	41	18	877	27.0	-289106.0	-4302.0	63567.0
8	15	41	18	877	28.0	-288008.0	-4296.0	63692.0
8	15	41	18	878	29.0	-284631.0	-4282.0	63681.0
8	15	41	18	879	30.0	-280339.0	-4279.0	63571.0
8	15	41	18	879	31.0	-275653.0	-4265.0	63597.0
8	15	41	18	880	32.0	-272286.0	-4258.0	63443.0
8	15	41	18	881	33.0	-270151.0	-4264.0	63582.0
8	15	41	18	881	34.0	-267152.0	-4268.0	63607.0
8	15	41	18	882	35.0	-264634.0	-4272.0	63281.0
8	15	41	18	883	36.0	-262784.0	-4274.0	63343.0
8	15	41	18	883	37.0	-261163.0	-4264.0	62905.0
8	15	41	18	884	38.0	-260656.0	-4279.0	62563.0
8	15	41	18	885	39.0	-259724.0	-4270.0	62656.0
8	15	41	18	885	40.0	-258972.0	-4274.0	62679.0
8	15	41	18	886	41.0	-258261.0	-4286.0	62289.0
8	15	41	18	887	43.0	-254798.0	-4288.0	62406.0
8	15	41	18	887	44.0	-252978.0	-4289.0	62171.0
8	15	41	18	888	45.0	-250653.0	-4312.0	61973.0
8	15	41	18	889	46.0	-248149.0	-4307.0	61735.0
8	15	41	18	889	47.0	-246059.0	-4308.0	61583.0
8	15	41	18	898	48.0	-244801.0	-4305.0	61522.0
8	15	41	18	898	49.0	-244099.0	-4311.0	61173.0
8	15	41	18	968	50.0	-243238.0	-4304.0	61389.0
8	15	41	18	969	51.0	-242260.0	-4337.0	60848.0
8	15	41	19	13	52.0	-240859.0	-4339.0	60598.0
8	15	41	19	58	53.0	-239267.0	-4349.0	60814.0
8	15	41	19	59	54.0	-237541.0	-4361.0	60622.0
8	15	41	19	59	55.0	-235572.0	-4372.0	60546.0
8	15	41	19	60	56.0	-233722.0	-4384.0	60322.0
8	15	41	19	61	57.0	-232340.0	-4388.0	60126.0
8	15	41	19	103	58.0	-230865.0	-4392.0	59746.0
8	15	41	19	103	59.0	-229376.0	-4411.0	57066.0
8	15	41	19	104	60.0	-228371.0	-4416.0	53732.0
8	15	41	19	105	61.0	-227513.0	-4421.0	52697.0
8	15	41	19	106	62.0	-226575.0	-4422.0	53099.0
8	15	41	19	106	63.0	-226001.0	-4438.0	53283.0
8	15	41	19	107	64.0	-225876.0	-4446.0	53548.0
8	15	41	19	108	88.0	-215869.0	-4431.0	53103.0
8	15	41	19	109	89.0	-218224.0	-4419.0	53398.0
8	15	41	19	109	90.0	-220337.0	-4401.0	53122.0
8	15	41	19	110	111.0	-230034.0	-4539.0	58653.0
8	15	41	19	111	133.0	-194256.0	-5461.0	67653.0
8	15	41	19	111	134.0	-194419.0	-5531.0	68159.0
8	15	41	19	112	135.0	-194548.0	-5609.0	68482.0
8	15	41	19	113	136.0	-196368.0	-5630.0	68713.0
8	15	41	19	113	137.0	-199212.0	-5707.0	69089.0
8	15	41	19	114	156.0	-162629.0	-7070.0	74266.0
8	15	41	19	115	157.0	-160744.0	-7144.0	74688.0
8	15	41	19	115	158.0	-159576.0	-7207.0	74971.0
8	15	41	19	116	159.0	-158596.0	-7277.0	75600.0
8	15	41	19	117	160.0	-157447.0	-7347.0	76249.0
8	15	41	19	117	161.0	-156402.0	-7397.0	76499.0
8	15	41	19	148	162.0	-155579.0	-7448.0	76648.0
8	15	41	19	149	163.0	-154947.0	-7516.0	77594.0
8	15	41	19	150	164.0	-154857.0	-7575.0	78029.0
8	15	41	19	150	165.0	-154982.0	-7621.0	78051.0
8	15	41	19	151	166.0	-154669.0	-7685.0	79034.0
8	15	41	19	152	167.0	-153797.0	-7751.0	79927.0
8	15	41	19	152	168.0	-153230.0	-7796.0	80034.0
8	15	41	19	153	169.0	-153412.0	-7842.0	80073.0
8	15	41	19	154	170.0	-153427.0	-7892.0	80834.0
8	15	41	19	154	171.0	-153494.0	-7954.0	81348.0
8	15	41	19	155	172.0	-153895.0	-7993.0	81282.0
8	15	41	19	156	173.0	-154687.0	-8027.0	81938.0
8	15	41	19	156	174.0	-155545.0	-8090.0	82599.0
8	15	41	19	157	175.0	-157199.0	-8129.0	82927.0
8	15	41	19	158	176.0	-159097.0	-8162.0	83387.0
8	15	41	19	158	178.0	-163648.0	-8257.0	84152.0
8	15	41	19	159	179.0	-166184.0	-8295.0	84213.0
8	15	41	19	159	180.0	-168903.0	-8349.0	84716.0
8	15	41	19	160	181.0	-171644.0	-8396.0	85296.0
8	15	41	19	161	182.0	-174058.0	-8426.0	85489.0
8	15	41	19	161	183.0	-176488.0	-8483.0	85986.0
8	15	41	19	192	184.0	-178906.0	-8524.0	86340.0
8	15	41	19	193	185.0	-180608.0	-8567.0	86679.0
8	15	41	19	194	186.0	-181966.0	-8615.0	87668.0
8	15	41	19	194	187.0	-182821.0	-8661.0	87771.0
8	15	41	19	195	188.0	-183706.0	-8701.0	87863.0
8	15	41	19	196	189.0	-184206.0	-8724.0	88626.0
8	15	41	19	196	190.0	-184592.0	-8777.0	88680.0
8	15	41	19	197	191.0	-185136.0	-8810.0	89175.0
8	15	41	19	198	192.0	-185485.0	-8832.0	89698.0
8	15	41	19	198	193.0	-185541.0	-8881.0	90012.0
8	15	41	19	199	194.0	-185922.0	-8934.0	90439.0
8	15	41	19	200	195.0	-186776.0	-8976.0	90765.0
8	15	41	19	200	196.0	-187578.0	-9022.0	91315.0
8	15	41	19	201	197.0	-188507.0	-9059.0	91664.0
8	15	41	19	202	198.0	-189524.0	-9077.0	92363.0
8	15	41	19	202	200.0	-191990.0	-9145.0	92678.0
8	15	41	19	203	201.0	-193309.0	-9199.0	93055.0
8	15	41	19	204	202.0	-194768.0	-9226.0	93734.0
8	15	41	19	204	203.0	-196276.0	-9263.0	93863.0
8	15	41	19	205	204.0	-197980.0	-9305.0	94043.0
8	15	41	19	205	205.0	-199558.0	-9340.0	94459.0
8	15	41	19	206	206.0	-200559.0	-9348.0	94772.0
8	15	41	19	329	207.0	-201498.0	-9364.0	94866.0
8	15	41	19	330	208.0	-202361.0	-9407.0	95668.0
8	15	41	19	330	209.0	-202677.0	-9426.0	96207.0
8	15	41	19	331	210.0	-202862.0	-9454.0	96411.0
8	15	41	19	332	211.0	-202710.0	-9487.0	97059.0
8	15	41	19	332	212.0	-202181.0	-9519.0	97521.0
8	15	41	19	333	213.0	-201302.0	-9545.0	97573.0
8	15	41	19	334	214.0	-200036.0	-9572.0	98103.0
8	15	41	19	334	215.0	-198255.0	-9613.0	98822.0
8	15	41	19	335	216.0	-196176.0	-9639.0	98858.0
8	15	41	19	336	217.0	-193979.0	-9666.0	99276.0
8	15	41	19	336	218.0	-191731.0	-9682.0	99659.0
8	15	41	19	337	219.0	-189086.0	-9713.0	99981.0
8	15	41	19	338	220.0	-186154.0	-9756.0	100140.0
8	15	41	19	338	221.0	-183128.0	-9779.0	100696.0
8	15	41	19	339	223.0	-176854.0	-9839.0	101425.0
8	15	41	19	339	12.0	-164114.0	-10353.0	121736.0
8	15	41	19	340	13.0	-163148.0	-10382.0	122516.0
8	15	41	19	341	14.0	-162101.0	-10394.0	122426.0
8	15	41	19	341	15.0	-161335.0	-10397.0	122562.0
8	15	41	19	342	16.0	-161069.0	-10411.0	123059.0
8	15	41	19	342	17.0	-160748.0	-10439.0	123264.0
8	15	41	19	373	18.0	-160339.0	-10449.0	123614.0
8	15	41	19	374	19.0	-160252.0	-10458.0	124177.0
8	15	41	19	375	20.0	-160142.0	-10470.0	124543.0
8	15	41	19	376	21.0	-160237.0	-10464.0	125113.0
8	15	41	19	376	22.0	-160388.0	-10471.0	125026.0
8	15	41	19	377	23.0	-160402.0	-10486.0	125537.0
8	15	41	19	378	24.0	-160619.0	-10481.0	126005.0
8	15	41	19	378	25.0	-161089.0	-10467.0	126518.0
8	15	41	19	379	26.0	-161682.0	-10474.0	126788.0
8	15	41	19	380	27.0	-162258.0	-10472.0	127009.0
8	15	41	19	380	28.0	-162710.0	-10486.0	127741.0
8	15	41	19	381	29.0	-163359.0	-10486.0	127987.0
8	15	41	19	382	30.0	-163942.0	-10464.0	128299.0
8	15	41	19	382	31.0	-164531.0	-10469.0	128672.0
8	15	41	19	417	32.0	-165188.0	-10469.0	128924.0
8	15	41	19	418	34.0	-166394.0	-10420.0	130318.0
8	15	41	19	419	35.0	-166831.0	-10449.0	130572.0
8	15	41	19	420	36.0	-167470.0	-10435.0	130434.0
8	15	41	19	421	37.0	-168201.0	-10438.0	130809.0
8	15	41	19	421	38.0	-168809.0	-10423.0	131239.0
8	15	41	19	422	39.0	-169313.0	-10415.0	131638.0
8	15	41	19	423	40.0	-169624.0	-10413.0	132065.0
8	15	41	19	423	41.0	-169951.0	-10404.0	132154.0
8	15	41	19	424	42.0	-170196.0	-10397.0	132150.0
8	15	41	19	425	43.0	-170209.0	-10387.0	132434.0
8	15	41	19	425	44.0	-169939.0	-10363.0	133186.0
8	15	41	19	426	45.0	-169589.0	-10356.0	133546.0
8	15	41	19	426	46.0	-169212.0	-10331.0	133547.0
8	15	41	19	427	47.0	-168856.0	-10321.0	133843.0
8	15	41	19	428	48.0	-168227.0	-10308.0	134561.0
8	15	41	19	428	57.0	-167493.0	-10201.0	135568.0
8	15	41	19	429	58.0	-168022.0	-10197.0	136147.0
8	15	41	19	430	59.0	-168302.0	-10186.0	136531.0
8	15	41	19	430	60.0	-168120.0	-10170.0	136954.0
8	15	41	19	431	61.0	-167705.0	-10147.0	137136.0
8	15	41	19	431	62.0	-167384.0	-10132.0	137333.0
8	15	41	19	463	63.0	-167134.0	-10124.0	137444.0
8	15	41	19	463	64.0	-166617.0	-10122.0	137566.0
8	15	41	19	464	65.0	-165979.0	-10101.0	137665.0
8	15	41	19	465	66.0	-165326.0	-10098.0	138170.0
8	15	41	19	465	67.0	-164457.0	-10094.0	138187.0
8	15	41	19	466	68.0	-163564.0	-10055.0	138201.0
8	15	41	19	467	69.0	-162291.0	-10049.0	138656.0
8	15	41	19	468	70.0	-160851.0	-10029.0	138802.0
8	15	41	19	469	71.0	-159738.0	-10006.0	138934.0
8	15	41	19	469	72.0	-158909.0	-9967.0	139298.0
8	15	41	19	470	73.0	-158057.0	-9959.0	139511.0
8	15	41	19	471	74.0	-157292.0	-9939.0	139709.0
8	15	41	19	471	75.0	-156659.0	-9908.0	139964.0
8	15	41	19	472	76.0	-156117.0	-9894.0	140143.0
8	15	41	19	472	77.0	-155531.0	-9877.0	140272.0
8	15	41	19	473	79.0	-154468.0	-9788.0	140873.0
8	15	41	19	473	80.0	-154237.0	-9777.0	140899.0
8	15	41	19	508	81.0	-153865.0	-9766.0	141103.0
8	15	41	19	508	82.0	-153192.0	-9733.0	141307.0
8	15	41	19	509	83.0	-152635.0	-9700.0	141479.0
8	15	41	19	510	84.0	-152031.0	-9673.0	141581.0
8	15	41	19	510	85.0	-151381.0	-9642.0	141498.0
8	15	41	19	511	86.0	-150619.0	-9609.0	141569.0
8	15	41	19	512	87.0	-149744.0	-9584.0	141997.0
8	15	41	19	512	88.0	-148267.0	-9567.0	142241.0
8	15	41	19	513	89.0	-146702.0	-9521.0	142308.0
8	15	41	19	514	90.0	-145637.0	-9470.0	142440.0
8	15	41	19	514	91.0	-145127.0	-9447.0	142577.0
8	15	41	19	515	92.0	-144744.0	-9406.0	142386.0
8	15	41	19	515	93.0	-144690.0	-9389.0	142481.0
8	15	41	19	516	94.0	-144420.0	-9354.0	142844.0
8	15	41	19	517	95.0	-144847.0	-9302.0	143407.0
8	15	41	19	517	101.0	-155162.0	-9052.0	145409.0
8	15	41	19	518	102.0	-156583.0	-9029.0	145427.0
8	15	41	19	519	103.0	-157723.0	-8992.0	145464.0
8	15	41	19	519	104.0	-158349.0	-8947.0	145884.0
8	15	41	19	520	105.0	-158584.0	-8902.0	146326.0
8	15	41	19	521	106.0	-158802.0	-8857.0	146271.0
8	15	41	19	521	107.0	-158867.0	-8834.0	146729.0
8	15	41	19	690	108.0	-158946.0	-8783.0	147112.0
8	15	41	19	690	109.0	-158976.0	-8742.0	147157.0
8	15	41	19	691	110.0	-159011.0	-8684.0	147548.0
8	15	41	19	692	111.0	-159042.0	-8640.0	147671.0
8	15	41	19	693	112.0	-159128.0	-8578.0	148072.0
8	15	41	19	693	113.0	-158856.0	-8518.0	148189.0
8	15	41	19	694	114.0	-158417.0	-8500.0	148352.0
8	15	41	19	695	115.0	-158324.0	-8439.0	148692.0
8	15	41	19	695	116.0	-158278.0	-8400.0	148629.0
8	15	41	19	696	117.0	-158320.0	-8350.0	148924.0
8	15	41	19	697	118.0	-158829.0	-8305.0	148939.0
8	15	41	19	697	119.0	-159585.0	-8247.0	149016.0
8	15	41	19	698	120.0	-160141.0	-8195.0	149030.0
8	15	41	19	699	121.0	-160584.0	-8154.0	149354.0
8	15	41	19	699	122.0	-161344.0	-8111.0	149869.0
8	15	41	19	700	124.0	-163195.0	-8041.0	149691.0
8	15	41	19	701	191.0	-182979.0	-6074.0	141199.0
8	15	41	19	701	192.0	-180123.0	-6045.0	138944.0
8	15	41	19	702	193.0	-177591.0	-6039.0	136246.0
8	15	41	19	702	194.0	-175459.0	-6029.0	132855.0
8	15	41	19	703	195.0	-173792.0	-6017.0	129263.0
8	15	41	19	704	196.0	-173416.0	-6016.0	126694.0
8	15	41	19	704	197.0	-174451.0	-6014.0	123568.0
8	15	41	19	734	198.0	-176755.0	-6017.0	119852.0
8	15	41	19	735	199.0	-180211.0	-5997.0	114752.0
8	15	41	19	735	200.0	-184124.0	-6002.0	108099.0
8	15	41	19	736	201.0	-188359.0	-5984.0	100017.0
8	15	41	19	737	202.0	-192472.0	-5990.0	91205.0
8	15	41	19	738	203.0	-195776.0	-5995.0	83116.0
8	15	41	19	738	204.0	-198198.0	-5989.0	75567.0
8	15	41	19	739	205.0	-199564.0	-5989.0	70538.0
8	15	41	19	740	206.0	-199706.0	-5963.0	69130.0
8	15	41	19	741	207.0	-198594.0	-5967.0	70921.0
8	15	41	19	741	208.0	-196504.0	-5959.0	79171.0
8	15	41	19	742	209.0	-194293.0	-5945.0	89301.0
8	15	41	19	742	210.0	-192627.0	-5947.0	101823.0
8	15	41	19	743	211.0	-192829.0	-5937.0	115634.0
8	15	41	19	744	212.0	-192667.0	-5935.0	127881.0
8	15	41	19	744	214.0	-187366.0	-5927.0	137688.0
8	15	41	19	745	215.0	-182231.0	-5930.0	136793.0
8	15	41	19	746	216.0	-176162.0	-5911.0	135862.0
8	15	41	19	746	217.0	-169352.0	-5911.0	135936.0
8	15	41	19	747	218.0	-162979.0	-5911.0	135861.0
8	15	41	19	747	219.0	-159867.0	-5877.0	135832.0
8	15	41	19	778	220.0	-160738.0	-5880.0	135424.0
8	15	41	19	779	221.0	-163942.0	-5874.0	134826.0
8	15	41	19	780	222.0	-166701.0	-5859.0	134385.0
8	15	41	19	781	223.0	-166043.0	-5850.0	133416.0
8	15	41	19	781	224.0	-160997.0	-5821.0	132732.0
8	15	41	19	782	225.0	-155422.0	-5804.0	132245.0
8	15	41	19	783	226.0	-153968.0	-5798.0	131639.0
8	15	41	19	783	227.0	-158965.0	-5793.0	131549.0
8	15	41	19	784	228.0	-167548.0	-5786.0	131121.0
8	15	41	19	785	229.0	-174181.0	-5780.0	130504.0
8	15	41	19	785	230.0	-175337.0	-5759.0	130014.0
8	15	41	19	822	231.0	-172864.0	-5744.0	129688.0
8	15	41	19	823	232.0	-171131.0	-5734.0	129429.0
8	15	41	19	824	233.0	-171942.0	-5728.0	128999.0
8	15	41	19	825	234.0	-174154.0	-5701.0	129040.0
8	15	41	19	826	236.0	-178329.0	-5694.0	129059.0
8	15	41	19	827	237.0	-182494.0	-5699.0	129126.0
8	15	41	19	827	238.0	-188789.0	-5682.0	129096.0
8	15	41	19	828	239.0	-194926.0	-5676.0	128718.0
8	15	41	19	829	240.0	-199364.0	-5669.0	128778.0
8	15	41	19	829	241.0	-201528.0	-5654.0	128827.0
8	15	41	19	830	242.0	-201796.0	-5646.0	128684.0
8	15	41	19	830	243.0	-201167.0	-5644.0	128426.0
8	15	41	19	831	244.0	-198877.0	-5631.0	128568.0
8	15	41	19	832	245.0	-194083.0	-5617.0	128351.0
8	15	41	19	832	246.0	-187124.0	-5612.0	128652.0
8	15	41	19	841	247.0	-178921.0	-5595.0	128720.0
8	15	41	19	841	3.0	-121519.0	-5418.0	127193.0
8	15	41	19	842	4.0	-125128.0	-5405.0	127319.0
8	15	41	19	842	5.0	-128997.0	-5380.0	127058.0
8	15	41	19	843	6.0	-133154.0	-5372.0	126817.0
8	15	41	19	844	7.0	-137298.0	-5353.0	126894.0
8	15	41	19	844	8.0	-141227.0	-5328.0	126646.0
8	15	41	19	867	9.0	-144708.0	-5326.0	126491.0
8	15	41	19	868	10.0	-147687.0	-5332.0	126129.0
8	15	41	19	869	11.0	-149979.0	-5306.0	126028.0
8	15	41	19	870	12.0	-151403.0	-5287.0	126038.0
8	15	41	19	870	13.0	-152357.0	-5286.0	125939.0
8	15	41	19	871	14.0	-152772.0	-5281.0	125924.0
8	15	41	19	872	15.0	-153110.0	-5246.0	125952.0
8	15	41	19	873	16.0	-153221.0	-5222.0	125692.0
8	15	41	19	873	17.0	-152867.0	-5187.0	124883.0
8	15	41	19	874	18.0	-152106.0	-5186.0	124961.0
8	15	41	19	875	19.0	-151458.0	-5177.0	124988.0
8	15	41	19	876	20.0	-150269.0	-5157.0	124363.0
8	15	41	19	876	21.0	-148587.0	-5152.0	124398.0
8	15	41	19	877	22.0	-147587.0	-5141.0	124496.0
8	15	41	19	878	23.0	-146991.0	-5116.0	124349.0
8	15	41	19	878	25.0	-143099.0	-5077.0	124477.0
8	15	41	19	879	26.0	-142244.0	-5056.0	124354.0
8	15	41	19	880	27.0	-141674.0	-5039.0	124076.0
8	15	41	19	881	28.0	-141585.0	-5017.0	124280.0
8	15	41	19	881	29.0	-141686.0	-4988.0	124061.0
8	15	41	20	1	30.0	-141996.0	-4986.0	123455.0
8	15	41	20	2	31.0	-141590.0	-4975.0	123602.0
8	15	41	20	3	32.0	-140788.0	-4956.0	123831.0
8	15	41	20	48	33.0	-140977.0	-4931.0	123524.0
8	15	41	20	49	34.0	-141532.0	-4900.0	123209.0
8	15	41	20	49	35.0	-142653.0	-4865.0	123479.0
8	15	41	20	50	36.0	-143950.0	-4839.0	123315.0
8	15	41	20	51	37.0	-143985.0	-4831.0	123101.0
8	15	41	20	51	38.0	-143218.0	-4813.0	123119.0
8	15	41	20	52	39.0	-144485.0	-4786.0	122836.0
8	15	41	20	53	40.0	-145867.0	-4740.0	122563.0
8	15	41	20	53	41.0	-147293.0	-4709.0	122388.0
8	15	41	20	54	42.0	-148193.0	-4695.0	122323.0
8	15	41	20	54	43.0	-150007.0	-4672.0	122123.0
8	15	41	20	55	44.0	-151979.0	-4639.0	121989.0
8	15	41	20	56	45.0	-153454.0	-4614.0	122061.0
8	15	41	20	57	93.0	-172300.0	-2284.0	118761.0
8	15	41	20	58	94.0	-171169.0	-2213.0	118738.0
8	15	41	20	59	95.0	-169591.0	-2132.0	119026.0
8	15	41	20	60	115.0	-172317.0	-1284.0	119401.0
8	15	41	20	60	116.0	-168026.0	-1270.0	119171.0
8	15	41	20	61	117.0	-164940.0	-1231.0	119256.0
8	15	41	20	62	118.0	-162233.0	-1203.0	119359.0
8	15	41	20	62	119.0	-166427.0	-1175.0	119201.0
8	15	41	20	63	120.0	-173705.0	-1136.0	119218.0
8	15	41	20	92	121.0	-176271.0	-1106.0	119074.0
8	15	41	20	93	122.0	-171202.0	-1077.0	119086.0
8	15	41	20	93	123.0	-163876.0	-1068.0	119184.0
8	15	41	20	94	124.0	-158082.0	-1046.0	119021.0
8	15	41	20	137	125.0	-151306.0	-1012.0	118724.0
8	15	41	20	139	126.0	-142320.0	-988.0	118489.0
8	15	41	20	140	127.0	-132262.0	-955.0	118549.0
8	15	41	20	141	128.0	-123265.0	-924.0	118259.0
8	15	41	20	142	129.0	-118716.0	-913.0	118326.0
8	15	41	20	142	130.0	-116691.0	-873.0	118007.0
8	15	41	20	143	131.0	-114045.0	-854.0	117779.0
8	15	41	20	144	132.0	-112192.0	-832.0	117889.0
8	15	41	20	145	133.0	-110456.0	-791.0	117687.0
8	15	41	20	146	134.0	-110624.0	-773.0	117511.0
8	15	41	20	147	135.0	-111991.0	-732.0	117492.0
8	15	41	20	148	137.0	-117097.0	-693.0	117218.0
8	15	41	20	148	138.0	-120692.0	-667.0	117224.0
8	15	41	20	149	139.0	-124197.0	-629.0	117228.0
8	15	41	20	149	140.0	-127136.0	-589.0	116867.0
8	15	41	20	150	141.0	-129114.0	-577.0	116735.0
8	15	41	20	150	160.0	-107358.0	-163.0	113394.0
8	15	41	20	151	161.0	-110539.0	-151.0	113646.0
8	15	41	20	152	162.0	-113691.0	-140.0	113924.0
8	15	41	20	152	163.0	-116952.0	-126.0	113546.0
8	15	41	20	153	164.0	-120457.0	-101.0	113283.0
8	15	41	20	153	165.0	-124327.0	-90.0	113141.0
8	15	41	20	182	166.0	-128216.0	-90.0	112708.0
8	15	41	20	183	167.0	-132114.0	-73.0	112296.0
8	15	41	20	184	168.0	-135706.0	-57.0	112424.0
8	15	41	20	185	169.0	-139379.0	-47.0	112284.0
8	15	41	20	186	170.0	-142948.0	-36.0	112222.0
8	15	41	20	186	171.0	-146566.0	-11.0	112286.0
8	15	41	20	187	172.0	-150461.0	-2.0	111991.0
8	15	41	20	187	173.0	-154508.0	-8.0	112214.0
8	15	41	20	364	174.0	-158292.0	13.0	112142.0
8	15	41	20	364	175.0	-161945.0	36.0	111879.0
8	15	41	20	366	176.0	-165106.0	50.0	111717.0
8	15	41	20	367	177.0	-168379.0	79.0	112078.0
8	15	41	20	368	178.0	-171869.0	81.0	111816.0
8	15	41	20	369	179.0	-175914.0	91.0	111484.0
8	15	41	20	370	180.0	-180292.0	111.0	111853.0
8	15	41	20	370	182.0	-190022.0	119.0	111812.0
8	15	41	20	371	183.0	-195592.0	146.0	111617.0
8	15	41	20	372	184.0	-200479.0	152.0	111846.0
8	15	41	20	372	185.0	-205822.0	181.0	111484.0
8	15	41	20	373	186.0	-210416.0	195.0	111501.0
8	15	41	20	374	187.0	-214277.0	209.0	111636.0
8	15	41	20	374	188.0	-217268.0	217.0	111408.0
8	15	41	20	375	189.0	-219751.0	221.0	111199.0
8	15	41	20	375	190.0	-221867.0	224.0	111384.0
8	15	41	20	376	16.0	-196209.0	919.0	103851.0
8	15	41	20	377	17.0	-193559.0	915.0	103869.0
8	15	41	20	377	18.0	-190126.0	905.0	103726.0
8	15	41	20	378	19.0	-186848.0	912.0	104129.0
8	15	41	20	378	20.0	-183791.0	921.0	103825.0
8	15	41	20	379	21.0	-180514.0	917.0	103291.0
8	15	41	20	380	22.0	-177085.0	922.0	102716.0
8	15	41	20	409	23.0	-174195.0	898.0	102216.0
8	15	41	20	410	24.0	-171370.0	894.0	101847.0
8	15	41	20	411	25.0	-168144.0	893.0	101528.0
8	15	41	20	411	26.0	-164586.0	897.0	100628.0
8	15	41	20	412	27.0	-161349.0	889.0	99888.0
8	15	41	20	413	28.0	-158234.0	884.0	99329.0
8	15	41	20	414	29.0	-154961.0	899.0	99045.0
8	15	41	20	414	30.0	-151944.0	891.0	98842.0
8	15	41	20	415	31.0	-149441.0	895.0	98676.0
8	15	41	20	416	32.0	-147698.0	906.0	98691.0
8	15	41	20	416	33.0	-147119.0	906.0	98325.0
8	15	41	20	417	34.0	-147529.0	889.0	98195.0
8	15	41	20	418	35.0	-148346.0	888.0	98313.0
8	15	41	20	418	36.0	-149083.0	889.0	98353.0
8	15	41	20	419	37.0	-149481.0	881.0	98426.0
8	15	41	20	420	38.0	-149541.0	889.0	98531.0
8	15	41	20	420	39.0	-149256.0	878.0	98403.0
8	15	41	20	421	40.0	-148628.0	884.0	98064.0
8	15	41	20	421	41.0	-147599.0	869.0	98093.0
8	15	41	20	422	42.0	-146598.0	888.0	98441.0
8	15	41	20	423	43.0	-145762.0	875.0	98161.0
8	15	41	20	423	44.0	-145232.0	868.0	98314.0
8	15	41	20	452	45.0	-144902.0	868.0	98757.0
8	15	41	20	453	46.0	-144954.0	859.0	98727.0
8	15	41	20	454	47.0	-145602.0	859.0	98828.0
8	15	41	20	454	48.0	-146761.0	867.0	98773.0
8	15	41	20	455	49.0	-148013.0	869.0	98601.0
8	15	41	20	456	50.0	-148978.0	848.0	98641.0
8	15	41	20	457	51.0	-149691.0	854.0	98726.0
8	15	41	20	457	52.0	-150584.0	856.0	98754.0
8	15	41	20	458	53.0	-151449.0	858.0	98705.0
8	15	41	20	459	54.0	-152154.0	854.0	98583.0
8	15	41	20	459	55.0	-152766.0	849.0	98591.0
8	15	41	20	460	56.0	-153230.0	849.0	98394.0
8	15	41	20	461	57.0	-154113.0	855.0	98744.0
8	15	41	20	462	58.0	-154759.0	861.0	98639.0
8	15	41	20	462	59.0	-155343.0	863.0	98168.0
8	15	41	20	463	61.0	-156491.0	864.0	98006.0
8	15	41	20	464	62.0	-157476.0	844.0	97948.0
8	15	41	20	464	63.0	-158512.0	846.0	98031.0
8	15	41	20	465	64.0	-159499.0	854.0	97906.0
8	15	41	20	465	65.0	-159951.0	838.0	97649.0
8	15	41	20	466	66.0	-160285.0	826.0	97581.0
8	15	41	20	497	67.0	-160077.0	833.0	97509.0
8	15	41	20	498	68.0	-159717.0	832.0	97156.0
8	15	41	20	499	69.0	-158927.0	834.0	97364.0
8	15	41	20	500	70.0	-158049.0	835.0	97783.0
8	15	41	20	500	71.0	-157112.0	821.0	97514.0
8	15	41	20	501	72.0	-156185.0	832.0	97568.0
8	15	41	20	502	73.0	-155046.0	849.0	97323.0
8	15	41	20	502	74.0	-153306.0	837.0	97413.0
8	15	41	20	503	75.0	-151344.0	839.0	97436.0
8	15	41	20	503	76.0	-149232.0	836.0	97724.0
8	15	41	20	504	77.0	-147451.0	826.0	97913.0
8	15	41	20	505	78.0	-145843.0	831.0	97419.0
8	15	41	20	505	79.0	-144384.0	835.0	97430.0
8	15	41	20	506	80.0	-143249.0	847.0	97012.0
8	15	41	20	507	81.0	-143172.0	849.0	96898.0
8	15	41	20	507	83.0	-144289.0	840.0	96896.0
8	15	41	20	508	84.0	-144994.0	838.0	96561.0
8	15	41	20	509	85.0	-145967.0	846.0	96561.0
8	15	41	20	509	86.0	-146994.0	841.0	96508.0
8	15	41	20	510	87.0	-147761.0	850.0	96228.0
8	15	41	20	510	88.0	-148483.0	859.0	96121.0
8	15	41	20	511	89.0	-148814.0	854.0	96267.0
8	15	41	20	543	90.0	-148854.0	851.0	95851.0
8	15	41	20	543	91.0	-149184.0	851.0	95749.0
8	15	41	20	544	92.0	-149341.0	848.0	95718.0
8	15	41	20	545	93.0	-149362.0	839.0	95569.0
8	15	41	20	546	94.0	-149277.0	840.0	95772.0
8	15	41	20	546	95.0	-149199.0	839.0	95813.0
8	15	41	20	547	96.0	-149312.0	826.0	95840.0
8	15	41	20	548	97.0	-149511.0	835.0	95809.0
8	15	41	20	548	98.0	-149956.0	860.0	95694.0
8	15	41	20	549	99.0	-150637.0	861.0	95399.0
8	15	41	20	550	100.0	-151430.0	843.0	95074.0
8	15	41	20	550	101.0	-152092.0	857.0	95006.0
8	15	41	20	551	102.0	-152637.0	873.0	95122.0
8	15	41	20	552	103.0	-153046.0	871.0	94647.0
8	15	41	20	552	104.0	-153311.0	858.0	94766.0
8	15	41	20	553	106.0	-154214.0	861.0	94790.0
8	15	41	20	554	107.0	-155000.0	862.0	94446.0
8	15	41	20	554	108.0	-155777.0	855.0	94595.0
8	15	41	20	555	109.0	-156550.0	864.0	94400.0
8	15	41	20	556	110.0	-157152.0	891.0	94242.0
8	15	41	20	556	111.0	-157778.0	893.0	94498.0
8	15	41	20	632	112.0	-158993.0	880.0	94348.0
8	15	41	20	633	113.0	-160284.0	886.0	93847.0
8	15	41	20	634	114.0	-161824.0	879.0	93990.0
8	15	41	20	677	115.0	-163499.0	879.0	93752.0
8	15	41	20	678	116.0	-165242.0	891.0	93116.0
8	15	41	20	679	117.0	-166605.0	900.0	93248.0
8	15	41	20	679	118.0	-167517.0	903.0	93272.0
8	15	41	20	723	119.0	-168024.0	912.0	93263.0
8	15	41	20	747	120.0	-168284.0	906.0	93099.0
8	15	41	20	748	121.0	-169239.0	913.0	92951.0
8	15	41	20	748	122.0	-170970.0	931.0	92642.0
8	15	41	20	749	123.0	-173457.0	922.0	92181.0
8	15	41	20	750	124.0	-176251.0	924.0	92109.0
8	15	41	20	750	125.0	-178314.0	926.0	91999.0
8	15	41	20	751	126.0	-179266.0	921.0	91904.0
8	15	41	20	751	128.0	-178991.0	941.0	91376.0
8	15	41	20	752	151.0	-201220.0	1134.0	87954.0
8	15	41	20	752	152.0	-202748.0	1148.0	87440.0
8	15	41	20	753	153.0	-204336.0	1149.0	87433.0
8	15	41	20	753	173.0	-187917.0	1280.0	88808.0
8	15	41	20	754	174.0	-183194.0	1290.0	87809.0
8	15	41	20	755	175.0	-178935.0	1287.0	85633.0
8	15	41	20	755	176.0	-174931.0	1283.0	82562.0
8	15	41	20	756	196.0	-207178.0	1314.0	82366.0
8	15	41	20	756	197.0	-198450.0	1300.0	82673.0
8	15	41	20	757	198.0	-185869.0	1309.0	82190.0
8	15	41	20	757	199.0	-173832.0	1306.0	81582.0
8	15	41	20	758	200.0	-160988.0	1296.0	81234.0
8	15	41	20	759	201.0	-150185.0	1301.0	80594.0
8	15	41	20	771	202.0	-147888.0	1291.0	80779.0
8	15	41	20	772	203.0	-158121.0	1309.0	80916.0
8	15	41	20	773	204.0	-176221.0	1297.0	80709.0
8	15	41	20	774	205.0	-193343.0	1298.0	80388.0
8	15	41	20	774	206.0	-201954.0	1309.0	80395.0
8	15	41	20	775	207.0	-198681.0	1311.0	79749.0
8	15	41	20	776	208.0	-186352.0	1306.0	79230.0
8	15	41	20	776	209.0	-176445.0	1309.0	78718.0
8	15	41	20	777	210.0	-180587.0	1299.0	78276.0
8	15	41	20	777	211.0	-196092.0	1301.0	78035.0
8	15	41	20	778	212.0	-212692.0	1306.0	77933.0
8	15	41	20	779	213.0	-218614.0	1288.0	77567.0
8	15	41	20	779	214.0	-209267.0	1303.0	77248.0
8	15	41	20	780	215.0	-195894.0	1308.0	77078.0
8	15	41	20	780	216.0	-186180.0	1295.0	76814.0
8	15	41	20	781	218.0	-172776.0	1319.0	76478.0
8	15	41	20	781	219.0	-167651.0	1298.0	76034.0
8	15	41	20	782	220.0	-166282.0	1307.0	75768.0
8	15	41	20	783	221.0	-170395.0	1313.0	75683.0
8	15	41	20	813	222.0	-179648.0	1305.0	75207.0
8	15	41	20	813	223.0	-191216.0	1296.0	75192.0
8	15	41	20	814	224.0	-200702.0	1281.0	75055.0
8	15	41	20	815	225.0	-207848.0	1290.0	74726.0
8	15	41	20	816	226.0	-211999.0	1317.0	74580.0
8	15	41	20	816	227.0	-214506.0	1320.0	74454.0
8	15	41	20	817	228.0	-214026.0	1301.0	74185.0
8	15	41	20	817	229.0	-208237.0	1300.0	73891.0
8	15	41	20	818	230.0	-199656.0	1301.0	73369.0
8	15	41	20	819	231.0	-189934.0	1299.0	73389.0
8	15	41	20	819	232.0	-179729.0	1306.0	73256.0
8	15	41	20	820	233.0	-168239.0	1308.0	72827.0
8	15	41	20	821	234.0	-156326.0	1297.0	72573.0
8	15	41	20	821	235.0	-144624.0	1301.0	72009.0
8	15	41	20	822	236.0	-133472.0	1313.0	71614.0
8	15	41	20	823	237.0	-125129.0	1315.0	71521.0
8	15	41	20	823	241.0	-124421.0	1302.0	70754.0
8	15	41	20	824	242.0	-130373.0	1299.0	70153.0
8	15	41	20	824	243.0	-138233.0	1304.0	69718.0
8	15	41	20	825	244.0	-146720.0	1286.0	69738.0
8	15	41	20	826	245.0	-155044.0	1286.0	69058.0
8	15	41	20	826	246.0	-162534.0	1284.0	68907.0
8	15	41	20	857	247.0	-168527.0	1276.0	68794.0
8	15	41	20	858	248.0	-173836.0	1273.0	68326.0
8	15	41	20	859	249.0	-177731.0	1279.0	68087.0
8	15	41	20	860	250.0	-180683.0	1279.0	67875.0
8	15	41	20	860	251.0	-182184.0	1267.0	67341.0
8	15	41	20	861	252.0	-181336.0	1249.0	67268.0
8	15	41	20	862	253.0	-179462.0	1236.0	67327.0
8	15	41	20	862	254.0	-176954.0	1230.0	67020.0
8	15	41	20	863	255.0	-174026.0	1234.0	66404.0
8	15	41	20	864	0.0	-171192.0	1245.0	66363.0
8	15	41	20	865	1.0	-168438.0	1236.0	66454.0
8	15	41	20	865	2.0	-166255.0	1216.0	65681.0
8	15	41	20	866	3.0	-164886.0	1208.0	65329.0
8	15	41	20	866	4.0	-164049.0	1196.0	65043.0
8	15	41	20	867	5.0	-163829.0	1197.0	64611.0
8	15	41	20	868	7.0	-165464.0	1171.0	64291.0
8	15	41	20	868	8.0	-167657.0	1165.0	63941.0
8	15	41	20	869	9.0	-169567.0	1155.0	63436.0
8	15	41	20	993	10.0	-171024.0	1134.0	63409.0
8	15	41	20	994	11.0	-172038.0	1140.0	63119.0
8	15	41	20	995	12.0	-171561.0	1103.0	63044.0
8	15	41	20	996	13.0	-171184.0	1093.0	62873.0
8	15	41	21	37	14.0	-171659.0	1078.0	62668.0
8	15	41	21	38	15.0	-170489.0	1068.0	62429.0
8	15	41	21	61	16.0	-169069.0	1044.0	62092.0
8	15	41	21	62	17.0	-168156.0	1036.0	62096.0
8	15	41	21	62	18.0	-166109.0	1013.0	61724.0
8	15	41	21	63	19.0	-163764.0	996.0	61473.0
8	15	41	21	64	20.0	-161336.0	990.0	61035.0
8	15	41	21	64	21.0	-158742.0	981.0	60643.0
8	15	41	21	65	22.0	-155549.0	964.0	60827.0
8	15	41	21	65	23.0	-151648.0	973.0	60993.0
8	15	41	21	66	24.0	-147805.0	954.0	60013.0
8	15	41	21	66	25.0	-143972.0	934.0	60313.0
8	15	41	21	67	74.0	-176393.0	1627.0	46989.0
8	15	41	21	68	75.0	-177694.0	1656.0	46493.0
8	15	41	21	68	76.0	-178302.0	1700.0	46593.0
8	15	41	21	69	77.0	-179453.0	1733.0	46969.0
8	15	41	21	69	97.0	-205159.0	2333.0	46891.0
8	15	41	21	70	98.0	-203307.0	2349.0	46728.0
8	15	41	21	70	99.0	-202257.0	2359.0	46909.0
8	15	41	21	71	100.0	-207927.0	2379.0	46506.0
8	15	41	21	72	101.0	-216570.0	2396.0	46275.0
8	15	41	21	72	102.0	-221428.0	2421.0	46000.0
8	15	41	21	85	103.0	-218236.0	2431.0	46114.0
8	15	41	21	86	104.0	-211972.0	2456.0	45783.0
8	15	41	21	86	105.0	-206297.0	2468.0	45710.0
8	15	41	21	127	106.0	-198971.0	2458.0	45699.0
8	15	41	21	128	107.0	-188452.0	2469.0	45573.0
8	15	41	21	145	108.0	-177101.0	2479.0	45439.0
8	15	41	21	146	109.0	-168591.0	2494.0	45202.0
8	15	41	21	147	110.0	-164918.0	2509.0	45131.0
8	15	41	21	147	111.0	-165610.0	2518.0	45203.0
8	15	41	21	148	112.0	-167339.0	2514.0	44918.0
8	15	41	21	149	113.0	-169005.0	2526.0	44678.0
8	15	41	21	149	114.0	-170870.0	2529.0	44869.0
8	15	41	21	172	115.0	-172218.0	2526.0	44616.0
8	15	41	21	308	116.0	-173507.0	2522.0	44618.0
8	15	41	21	309	119.0	-173901.0	2551.0	44343.0
8	15	41	21	310	120.0	-171032.0	2549.0	44133.0
8	15	41	21	310	121.0	-166544.0	2554.0	44133.0
8	15	41	21	311	122.0	-161627.0	2559.0	43885.0
8	15	41	21	312	142.0	-188364.0	2589.0	41133.0
8	15	41	21	313	143.0	-193659.0	2589.0	41452.0
8	15	41	21	313	144.0	-198561.0	2592.0	41059.0
8	15	41	21	314	145.0	-202907.0	2583.0	41186.0
8	15	41	21	315	146.0	-206656.0	2583.0	41666.0
8	15	41	21	315	147.0	-210339.0	2579.0	41529.0
8	15	41	21	316	148.0	-213940.0	2584.0	41219.0
8	15	41	21	316	149.0	-217686.0	2584.0	41259.0
8	15	41	21	317	150.0	-220611.0	2583.0	41256.0
8	15	41	21	318	164.0	-223155.0	2573.0	40423.0
8	15	41	21	318	186.0	-253319.0	2657.0	38206.0
8	15	41	21	352	232.0	-220142.0	2968.0	37561.0
8	15	41	21	353	233.0	-218721.0	2968.0	37407.0
8	15	41	21	354	234.0	-217659.0	2969.0	37749.0
8	15	41	21	355	235.0	-217279.0	2961.0	38202.0
8	15	41	21	356	236.0	-217536.0	2934.0	37650.0
8	15	41	21	356	237.0	-217756.0	2926.0	37693.0
8	15	41	21	357	238.0	-218241.0	2919.0	37969.0
8	15	41	21	358	239.0	-219639.0	2922.0	37523.0
8	15	41	21	358	240.0	-220962.0	2918.0	37234.0
8	15	41	21	359	241.0	-222313.0	2910.0	37265.0
8	15	41	21	360	242.0	-223380.0	2912.0	37273.0
8	15	41	21	361	243.0	-223337.0	2902.0	37136.0
8	15	41	21	362	244.0	-221641.0	2889.0	37176.0
8	15	41	21	362	245.0	-219885.0	2883.0	37228.0
8	15	41	21	363	246.0	-217967.0	2859.0	37046.0
8	15	41	21	364	254.0	-190043.0	2765.0	36717.0
8	15	41	21	365	255.0	-187706.0	2752.0	36753.0
8	15	41	21	365	0.0	-185673.0	2739.0	36742.0
8	15	41	21	398	1.0	-183186.0	2719.0	36668.0
8	15	41	21	399	2.0	-180525.0	2696.0	35829.0
8	15	41	21	400	3.0	-178411.0	2676.0	35159.0
8	15	41	21	401	4.0	-176974.0	2664.0	34485.0
8	15	41	21	402	5.0	-175787.0	2648.0	33589.0
8	15	41	21	402	6.0	-175608.0	2647.0	33244.0
8	15	41	21	403	7.0	-175962.0	2623.0	33145.0
8	15	41	21	404	8.0	-176867.0	2607.0	32635.0
8	15	41	21	404	9.0	-178175.0	2604.0	32273.0
8	15	41	21	405	10.0	-179186.0	2579.0	32361.0
8	15	41	21	406	11.0	-180386.0	2553.0	32749.0
8	15	41	21	406	12.0	-181722.0	2528.0	32764.0
8	15	41	21	407	13.0	-182204.0	2522.0	33035.0
8	15	41	21	408	14.0	-182049.0	2499.0	32956.0
8	15	41	21	408	15.0	-182794.0	2494.0	32414.0
8	15	41	21	409	16.0	-183065.0	2486.0	32544.0
8	15	41	21	409	21.0	-191085.0	2389.0	32701.0
8	15	41	21	410	22.0	-194804.0	2375.0	32781.0
8	15	41	21	411	23.0	-198121.0	2358.0	32797.0
8	15	41	21	411	24.0	-200949.0	2330.0	32836.0
8	15	41	21	412	25.0	-204212.0	2316.0	32565.0
8	15	41	21	412	26.0	-208396.0	2287.0	32568.0
8	15	41	21	443	27.0	-213189.0	2268.0	32641.0
8	15	41	21	444	28.0	-219036.0	2243.0	32469.0
8	15	41	21	444	29.0	-224836.0	2224.0	32398.0
8	15	41	21	445	30.0	-230003.0	2210.0	32431.0
8	15	41	21	446	31.0	-233719.0	2196.0	32376.0
8	15	41	21	446	32.0	-236183.0	2161.0	32236.0
8	15	41	21	447	33.0	-238254.0	2153.0	31906.0
8	15	41	21	448	34.0	-238652.0	2123.0	32271.0
8	15	41	21	448	35.0	-239273.0	2113.0	32517.0
8	15	41	21	449	36.0	-240534.0	2091.0	32370.0
8	15	41	21	450	37.0	-242200.0	2073.0	32087.0
8	15	41	21	450	38.0	-244230.0	2061.0	32116.0
8	15	41	21	451	39.0	-245954.0	2026.0	32173.0
8	15	41	21	452	40.0	-246934.0	2003.0	31687.0
8	15	41	21	452	41.0	-246672.0	2004.0	31791.0
8	15	41	21	453	43.0	-242323.0	1938.0	31738.0
8	15	41	21	453	44.0	-239022.0	1928.0	31899.0
8	15	41	21	454	45.0	-235772.0	1884.0	31951.0
8	15	41	21	455	46.0	-231182.0	1874.0	31542.0
8	15	41	21	455	47.0	-227249.0	1872.0	31033.0
8	15	41	21	456	48.0	-225114.0	1858.0	31109.0
8	15	41	21	487	49.0	-223128.0	1816.0	31290.0
8	15	41	21	488	50.0	-224464.0	1786.0	31227.0
8	15	41	21	489	51.0	-223602.0	1793.0	31447.0
8	15	41	21	490	52.0	-222160.0	1783.0	31238.0
8	15	41	21	490	53.0	-224052.0	1769.0	31183.0
8	15	41	21	491	54.0	-227962.0	1747.0	30809.0
8	15	41	21	492	55.0	-229987.0	1745.0	30611.0
8	15	41	21	492	56.0	-231276.0	1722.0	30270.0
8	15	41	21	493	57.0	-231607.0	1714.0	29966.0
8	15	41	21	494	58.0	-229825.0	1702.0	29498.0
8	15	41	21	494	59.0	-226343.0	1688.0	29444.0
8	15	41	21	495	60.0	-222944.0	1687.0	29134.0
8	15	41	21	495	61.0	-220132.0	1669.0	28658.0
8	15	41	21	496	62.0	-216745.0	1668.0	28166.0
8	15	41	21	497	63.0	-215785.0	1662.0	28372.0
8	15	41	21	497	65.0	-218694.0	1634.0	28301.0
8	15	41	21	498	66.0	-220959.0	1635.0	28399.0
8	15	41	21	499	67.0	-225156.0	1643.0	28509.0
8	15	41	21	499	68.0	-228992.0	1607.0	28258.0
8	15	41	21	500	69.0	-232014.0	1606.0	28381.0
8	15	41	21	500	70.0	-234071.0	1588.0	28291.0
8	15	41	21	501	71.0	-234946.0	1571.0	28238.0
8	15	41	21	549	72.0	-236072.0	1568.0	28367.0
8	15	41	21	623	73.0	-235699.0	1571.0	28463.0
8	15	41	21	624	74.0	-234647.0	1546.0	28734.0
8	15	41	21	625	75.0	-233571.0	1538.0	28283.0
8	15	41	21	626	76.0	-233007.0	1546.0	28351.0
8	15	41	21	627	77.0	-232277.0	1533.0	28669.0
8	15	41	21	628	78.0	-232017.0	1523.0	28621.0
8	15	41	21	629	79.0	-231714.0	1511.0	28066.0
8	15	41	21	629	80.0	-230592.0	1483.0	28094.0
8	15	41	21	630	81.0	-230228.0	1482.0	28256.0
8	15	41	21	631	82.0	-227969.0	1482.0	28044.0
8	15	41	21	631	83.0	-224662.0	1471.0	27755.0
8	15	41	21	632	84.0	-221231.0	1457.0	27505.0
8	15	41	21	633	85.0	-218849.0	1458.0	27304.0
8	15	41	21	633	86.0	-217702.0	1449.0	27157.0
8	15	41	21	634	95.0	-202002.0	1401.0	26946.0
8	15	41	21	635	132.0	-171427.0	1084.0	-25856.0
8	15	41	21	635	133.0	-169759.0	1090.0	-32170.0
8	15	41	21	636	134.0	-166028.0	1069.0	-37165.0
8	15	41	21	636	135.0	-160943.0	1058.0	-39932.0
8	15	41	21	637	136.0	-155356.0	1028.0	-39716.0
8	15	41	21	638	137.0	-150531.0	1030.0	-34729.0
8	15	41	21	638	138.0	-146612.0	1029.0	-26794.0
8	15	41	21	639	139.0	-143503.0	1011.0	-14959.0
8	15	41	21	639	140.0	-141692.0	983.0	992.0
8	15	41	21	652	141.0	-141234.0	975.0	13311.0
8	15	41	21	653	142.0	-140939.0	961.0	23762.0
8	15	41	21	654	143.0	-141275.0	953.0	29039.0
8	15	41	21	655	144.0	-140097.0	956.0	28344.0
8	15	41	21	655	145.0	-137262.0	953.0	28164.0
8	15	41	21	656	146.0	-134637.0	952.0	28276.0
8	15	41	21	657	147.0	-133081.0	933.0	28201.0
8	15	41	21	657	148.0	-132290.0	913.0	28137.0
8	15	41	21	658	149.0	-133719.0	909.0	28003.0
8	15	41	21	697	150.0	-140466.0	911.0	28194.0
8	15	41	21	698	151.0	-154926.0	900.0	28294.0
8	15	41	21	698	152.0	-174889.0	902.0	28479.0
8	15	41	21	699	153.0	-195160.0	900.0	28192.0
8	15	41	21	700	154.0	-209772.0	891.0	27849.0
8	15	41	21	700	155.0	-214875.0	894.0	27771.0
8	15	41	21	701	156.0	-209835.0	899.0	27379.0
8	15	41	21	702	157.0	-202121.0	880.0	26776.0
8	15	41	21	702	158.0	-200912.0	868.0	27146.0
8	15	41	21	703	159.0	-208424.0	897.0	27094.0
8	15	41	21	704	160.0	-217489.0	895.0	26393.0
8	15	41	21	704	161.0	-221376.0	879.0	26026.0
8	15	41	21	705	162.0	-218369.0	866.0	26114.0
8	15	41	21	706	163.0	-209527.0	871.0	25846.0
8	15	41	21	706	164.0	-200743.0	855.0	25451.0
8	15	41	21	707	170.0	-219263.0	833.0	24991.0
8	15	41	21	707	171.0	-221448.0	844.0	25216.0
8	15	41	21	708	172.0	-222001.0	853.0	24897.0
8	15	41	21	709	173.0	-220207.0	851.0	24781.0
8	15	41	21	717	174.0	-215863.0	836.0	24615.0
8	15	41	21	718	175.0	-208418.0	826.0	24210.0
8	15	41	21	718	176.0	-200085.0	824.0	24121.0
8	15	41	21	719	177.0	-191707.0	809.0	24141.0
8	15	41	21	749	178.0	-183863.0	817.0	24314.0
8	15	41	21	750	179.0	-176914.0	818.0	24169.0
8	15	41	21	750	180.0	-170227.0	800.0	23941.0
8	15	41	21	751	181.0	-164652.0	788.0	23991.0
8	15	41	21	751	182.0	-161023.0	797.0	23796.0
8	15	41	21	752	183.0	-159109.0	799.0	23808.0
8	15	41	21	752	184.0	-157604.0	786.0	23701.0
8	15	41	21	753	185.0	-156836.0	770.0	23295.0
8	15	41	21	753	186.0	-157192.0	776.0	23277.0
8	15	41	21	754	187.0	-159303.0	768.0	23649.0
8	15	41	21	755	188.0	-162554.0	761.0	23247.0
8	15	41	21	755	189.0	-167582.0	740.0	23029.0
8	15	41	21	756	190.0	-174231.0	711.0	23122.0
8	15	41	21	756	191.0	-182545.0	712.0	23165.0
8	15	41	21	757	192.0	-191433.0	693.0	23026.0
8	15	41	21	757	193.0	-200996.0	675.0	23282.0
8	15	41	21	758	194.0	-210931.0	664.0	23386.0
8	15	41	21	758	195.0	-219629.0	659.0	22724.0
8	15	41	21	759	196.0	-226529.0	643.0	22948.0
8	15	41	21	760	197.0	-231551.0	628.0	23231.0
8	15	41	21	760	198.0	-234013.0	631.0	22654.0
8	15	41	21	761	199.0	-233801.0	604.0	22421.0
8	15	41	21	761	200.0	-232042.0	591.0	22704.0
8	15	41	21	762	201.0	-229227.0	556.0	22745.0
8	15	41	21	772	202.0	-225821.0	529.0	22561.0
8	15	41	21	817	203.0	-221800.0	533.0	22264.0
8	15	41	21	818	204.0	-217235.0	513.0	21799.0
8	15	41	21	818	205.0	-212954.0	494.0	21799.0
8	15	41	21	819	206.0	-209488.0	482.0	21757.0
8	15	41	21	820	207.0	-205946.0	471.0	21515.0
8	15	41	21	820	208.0	-202705.0	446.0	21653.0
8	15	41	21	821	209.0	-200101.0	422.0	21459.0
8	15	41	21	821	210.0	-197420.0	423.0	21074.0
8	15	41	21	822	211.0	-194812.0	400.0	20336.0
8	15	41	21	823	212.0	-192669.0	370.0	20394.0
8	15	41	21	823	213.0	-191464.0	363.0	20229.0
8	15	41	21	824	214.0	-191084.0	339.0	20254.0
8	15	41	21	824	215.0	-191479.0	325.0	20482.0
8	15	41	21	825	216.0	-192621.0	311.0	20564.0
8	15	41	21	826	217.0	-194118.0	286.0	20628.0
8	15	41	21	826	218.0	-195567.0	259.0	19999.0
8	15	41	21	827	230.0	-191356.0	88.0	18056.0
8	15	41	21	827	231.0	-190495.0	84.0	17959.0
8	15	41	21	828	232.0	-189609.0	47.0	17990.0
8	15	41	21	838	233.0	-188619.0	30.0	17410.0
8	15	41	21	839	234.0	-187996.0	10.0	16949.0
8	15	41	21	839	235.0	-187653.0	-7.0	16724.0
8	15	41	21	840	236.0	-187226.0	-2.0	16435.0
8	15	41	21	840	237.0	-187174.0	-1.0	16181.0
8	15	41	21	841	238.0	-187792.0	-19.0	16084.0
8	15	41	21	862	239.0	-189151.0	-40.0	15893.0
8	15	41	21	862	240.0	-191203.0	-35.0	15878.0
8	15	41	21	863	241.0	-193112.0	-49.0	15661.0
8	15	41	21	863	242.0	-195414.0	-54.0	15116.0
8	15	41	21	864	243.0	-198692.0	-56.0	14963.0
8	15	41	21	865	244.0	-201669.0	-62.0	14963.0
8	15	41	21	865	245.0	-204181.0	-69.0	14485.0
8	15	41	21	866	246.0	-206654.0	-77.0	14274.0
8	15	41	21	866	247.0	-208521.0	-72.0	14635.0
8	15	41	21	867	248.0	-209979.0	-81.0	14587.0
8	15	41	21	867	249.0	-211572.0	-76.0	14420.0
8	15	41	21	868	250.0	-212642.0	-67.0	14681.0
8	15	41	21	868	251.0	-213819.0	-54.0	14586.0
8	15	41	21	869	252.0	-214923.0	-59.0	14338.0
8	15	41	21	870	253.0	-215832.0	-47.0	13991.0
8	15	41	21	884	254.0	-216342.0	-51.0	14138.0
8	15	41	21	885	255.0	-216397.0	-18.0	13792.0
8	15	41	21	886	0.0	-216132.0	10.0	13745.0
8	15	41	21	886	1.0	-215205.0	14.0	14102.0
8	15	41	21	887	2.0	-214235.0	53.0	13852.0
8	15	41	21	888	3.0	-213504.0	84.0	13696.0
8	15	41	21	888	4.0	-213072.0	71.0	13883.0
8	15	41	21	889	5.0	-213036.0	86.0	13943.0
8	15	41	21	923	6.0	-213759.0	129.0	13991.0
8	15	41	21	923	7.0	-214757.0	158.0	14181.0
8	15	41	21	924	8.0	-215857.0	176.0	14247.0
8	15	41	21	925	9.0	-217099.0	208.0	14531.0
8	15	41	21	926	10.0	-218459.0	249.0	14719.0
8	15	41	21	926	11.0	-219212.0	279.0	15056.0
8	15	41	21	927	12.0	-219673.0	298.0	15173.0
8	15	41	21	927	13.0	-219951.0	348.0	15384.0
8	15	41	21	928	14.0	-218916.0	376.0	15280.0
8	15	41	21	929	15.0	-217284.0	394.0	15739.0
8	15	41	21	929	16.0	-215314.0	441.0	16249.0
8	15	41	21	930	17.0	-212764.0	478.0	16448.0
8	15	41	21	930	18.0	-209959.0	506.0	16631.0
8	15	41	21	931	19.0	-207088.0	535.0	17316.0
8	15	41	21	932	20.0	-203834.0	555.0	17562.0
8	15	41	21	932	26.0	-182086.0	778.0	19906.0
8	15	41	21	933	27.0	-178458.0	809.0	20466.0
8	15	41	21	933	28.0	-175567.0	844.0	20923.0
8	15	41	21	934	29.0	-173711.0	865.0	21318.0
8	15	41	21	942	30.0	-173119.0	903.0	21635.0
8	15	41	21	942	31.0	-173092.0	936.0	21279.0
8	15	41	21	943	32.0	-174152.0	961.0	21291.0
8	15	41	21	943	33.0	-176271.0	978.0	21901.0
8	15	41	21	944	34.0	-179578.0	999.0	21928.0
8	15	41	21	967	35.0	-184429.0	1013.0	22104.0
8	15	41	21	967	36.0	-190332.0	1048.0	22219.0
8	15	41	21	968	37.0	-194659.0	1078.0	22279.0
8	15	41	21	969	38.0	-199927.0	1119.0	22209.0
8	15	41	21	969	39.0	-202764.0	1124.0	22403.0
8	15	41	21	970	40.0	-198545.0	1150.0	22453.0
8	15	41	21	970	41.0	-200594.0	1173.0	22362.0
8	15	41	21	971	42.0	-204088.0	1194.0	22399.0
8	15	41	21	972	43.0	-209564.0	1218.0	22393.0
8	15	41	21	972	44.0	-219688.0	1232.0	22538.0
8	15	41	21	973	45.0	-229589.0	1230.0	22824.0
8	15	41	21	974	46.0	-234076.0	1244.0	22946.0
8	15	41	21	974	47.0	-230112.0	1287.0	22924.0
8	15	41	21	975	48.0	-221534.0	1305.0	23033.0
8	15	41	21	975	49.0	-210979.0	1313.0	23048.0
8	15	41	21	976	50.0	-199297.0	1334.0	23294.0
8	15	41	21	976	51.0	-188911.0	1358.0	23237.0
8	15	41	21	977	52.0	-182006.0	1353.0	23024.0
8	15	41	21	978	53.0	-178942.0	1370.0	23027.0
8	15	41	21	988	54.0	-178786.0	1385.0	23278.0
8	15	41	21	989	55.0	-179583.0	1390.0	23331.0
8	15	41	22	28	56.0	-179989.0	1405.0	23007.0
8	15	41	22	29	57.0	-179637.0	1390.0	22883.0
8	15	41	22	30	58.0	-179222.0	1409.0	23139.0
8	15	41	22	30	59.0	-179691.0	1425.0	23285.0
8	15	41	22	31	60.0	-181125.0	1421.0	23090.0
8	15	41	22	32	61.0	-183632.0	1422.0	23219.0
8	15	41	22	53	62.0	-186936.0	1442.0	23173.0
8	15	41	22	54	63.0	-189950.0	1453.0	23173.0
8	15	41	22	54	64.0	-192105.0	1461.0	23386.0
8	15	41	22	55	65.0	-193166.0	1449.0	23325.0
8	15	41	22	56	66.0	-193054.0	1451.0	23142.0
8	15	41	22	57	67.0	-191620.0	1474.0	23340.0
8	15	41	22	57	68.0	-189224.0	1484.0	23193.0
8	15	41	22	58	69.0	-186064.0	1458.0	23171.0
8	15	41	22	58	70.0	-181942.0	1462.0	23239.0
8	15	41	22	59	71.0	-176714.0	1456.0	23439.0
8	15	41	22	59	79.0	-161049.0	1479.0	23069.0
8	15	41	22	60	80.0	-162560.0	1492.0	22683.0
8	15	41	22	61	81.0	-163459.0	1478.0	22011.0
8	15	41	22	61	82.0	-163911.0	1478.0	22031.0
8	15	41	22	62	83.0	-164177.0	1466.0	22368.0
8	15	41	22	62	84.0	-163994.0	1466.0	22148.0
8	15	41	22	63	85.0	-162682.0	1449.0	21708.0
8	15	41	22	63	86.0	-160892.0	1459.0	21666.0
8	15	41	22	64	87.0	-158586.0	1464.0	21502.0
8	15	41	22	64	88.0	-155954.0	1469.0	21321.0
8	15	41	22	65	89.0	-154169.0	1468.0	21351.0
8	15	41	22	65	90.0	-153384.0	1446.0	21289.0
8	15	41	22	66	91.0	-153799.0	1443.0	21137.0
8	15	41	22	67	92.0	-155415.0	1446.0	21336.0
8	15	41	22	67	93.0	-157592.0	1441.0	21458.0
8	15	41	22	68	94.0	-160397.0	1455.0	21491.0
8	15	41	22	68	95.0	-163467.0	1461.0	21276.0
8	15	41	22	76	96.0	-166734.0	1460.0	21268.0
8	15	41	22	77	97.0	-170054.0	1448.0	21281.0
8	15	41	22	77	98.0	-173544.0	1450.0	21253.0
8	15	41	22	78	99.0	-177452.0	1443.0	21166.0
8	15	41	22	78	100.0	-181441.0	1439.0	21366.0
8	15	41	22	79	101.0	-185333.0	1440.0	21644.0
8	15	41	22	79	102.0	-189159.0	1439.0	21529.0
8	15	41	22	99	103.0	-193053.0	1424.0	21440.0
8	15	41	22	100	104.0	-197135.0	1426.0	21348.0
8	15	41	22	101	105.0	-201219.0	1428.0	21604.0
8	15	41	22	101	106.0	-205448.0	1433.0	21391.0
8	15	41	22	102	107.0	-209613.0	1436.0	21236.0
8	15	41	22	102	108.0	-213063.0	1421.0	21509.0
8	15	41	22	103	109.0	-215972.0	1422.0	21283.0
8	15	41	22	104	110.0	-217728.0	1401.0	20891.0
8	15	41	22	104	111.0	-218768.0	1421.0	21123.0
8	15	41	22	105	112.0	-218904.0	1429.0	21354.0
8	15	41	22	106	113.0	-218489.0	1419.0	21336.0
8	15	41	22	106	114.0	-217637.0	1436.0	21354.0
8	15	41	22	107	115.0	-216532.0	1433.0	21160.0
8	15	41	22	107	116.0	-215092.0	1428.0	20835.0
8	15	41	22	108	117.0	-213977.0	1418.0	20786.0
8	15	41	22	148	118.0	-213357.0	1430.0	21308.0
8	15	41	22	149	119.0	-212873.0	1425.0	21184.0
8	15	41	22	149	120.0	-212700.0	1429.0	20938.0
8	15	41	22	150	121.0	-212691.0	1428.0	21192.0
8	15	41	22	150	122.0	-212896.0	1431.0	21290.0
8	15	41	22	151	123.0	-213179.0	1433.0	21086.0
8	15	41	22	152	124.0	-213382.0	1444.0	21231.0
8	15	41	22	152	125.0	-213462.0	1445.0	21064.0
8	15	41	22	153	126.0	-213227.0	1447.0	20745.0
8	15	41	22	154	127.0	-212573.0	1458.0	20728.0
8	15	41	22	154	128.0	-211996.0	1462.0	21178.0
8	15	41	22	155	129.0	-211647.0	1467.0	21141.0
8	15	41	22	156	130.0	-211393.0	1473.0	21125.0
8	15	41	22	156	131.0	-211624.0	1493.0	20993.0
8	15	41	22	157	132.0	-211491.0	1476.0	21076.0
8	15	41	22	158	138.0	-209403.0	1518.0	21138.0
8	15	41	22	158	139.0	-207976.0	1515.0	21184.0
8	15	41	22	159	140.0	-206065.0	1500.0	21096.0
8	15	41	22	159	141.0	-204089.0	1516.0	21028.0
8	15	41	22	160	142.0	-202342.0	1524.0	21345.0
8	15	41	22	169	143.0	-200541.0	1512.0	21570.0
8	15	41	22	169	144.0	-198606.0	1512.0	21232.0
8	15	41	22	170	145.0	-197050.0	1529.0	20938.0
8	15	41	22	170	146.0	-195575.0	1538.0	21046.0
8	15	41	22	192	147.0	-194246.0	1544.0	20674.0
8	15	41	22	193	148.0	-193144.0	1562.0	20628.0
8	15	41	22	193	149.0	-191973.0	1575.0	20999.0
8	15	41	22	194	150.0	-190882.0	1560.0	20931.0
8	15	41	22	195	151.0	-189995.0	1571.0	20941.0
8	15	41	22	195	152.0	-189518.0	1591.0	20946.0
8	15	41	22	196	153.0	-188957.0	1588.0	20930.0
8	15	41	22	196	154.0	-188448.0	1587.0	21064.0
8	15	41	22	197	155.0	-188212.0	1581.0	20689.0
8	15	41	22	198	156.0	-188342.0	1597.0	20416.0
8	15	41	22	198	157.0	-188371.0	1603.0	20366.0
8	15	41	22	199	158.0	-188368.0	1620.0	20394.0
8	15	41	22	199	159.0	-188597.0	1622.0	20413.0
8	15	41	22	200	160.0	-188597.0	1614.0	20303.0
8	15	41	22	200	161.0	-188944.0	1618.0	20138.0
8	15	41	22	214	162.0	-189237.0	1633.0	19842.0
8	15	41	22	215	163.0	-189021.0	1632.0	19914.0
8	15	41	22	216	164.0	-188928.0	1643.0	20067.0
8	15	41	22	216	165.0	-189237.0	1658.0	20019.0
8	15	41	22	217	166.0	-189169.0	1661.0	19796.0
8	15	41	22	218	167.0	-188577.0	1656.0	19489.0
8	15	41	22	218	168.0	-187956.0	1652.0	19791.0
8	15	41	22	219	169.0	-187759.0	1659.0	19807.0
8	15	41	22	219	170.0	-187672.0	1659.0	19704.0
8	15	41	22	253	171.0	-188058.0	1671.0	19990.0
8	15	41	22	253	172.0	-188616.0	1691.0	19949.0
8	15	41	22	254	173.0	-189321.0	1701.0	19291.0
8	15	41	22	255	174.0	-190194.0	1687.0	19419.0
8	15	41	22	256	175.0	-191456.0	1689.0	19522.0
8	15	41	22	257	176.0	-193336.0	1701.0	19064.0
8	15	41	22	257	177.0	-195044.0	1705.0	19211.0
8	15	41	22	258	178.0	-195844.0	1729.0	19308.0
8	15	41	22	259	179.0	-196321.0	1712.0	19029.0
8	15	41	22	259	180.0	-196509.0	1712.0	19109.0
8	15	41	22	260	181.0	-196327.0	1711.0	18921.0
8	15	41	22	260	182.0	-195510.0	1710.0	18994.0
8	15	41	22	268	183.0	-194212.0	1730.0	18807.0
8	15	41	22	269	184.0	-193219.0	1735.0	18676.0
8	15	41	22	269	185.0	-192831.0	1733.0	18333.0
8	15	41	22	270	191.0	-196526.0	1744.0	18272.0
8	15	41	22	271	192.0	-196249.0	1725.0	18437.0
8	15	41	22	271	193.0	-195578.0	1716.0	18381.0
8	15	41	22	272	194.0	-195020.0	1709.0	17880.0
8	15	41	22	272	195.0	-194207.0	1720.0	17554.0
8	15	41	22	273	196.0	-193480.0	1718.0	17346.0
8	15	41	22	274	197.0	-193032.0	1725.0	17049.0
8	15	41	22	274	198.0	-192691.0	1717.0	17133.0
8	15	41	22	275	199.0	-192482.0	1698.0	17010.0
8	15	41	22	275	200.0	-192349.0	1695.0	16816.0
8	15	41	22	276	201.0	-192781.0	1692.0	16558.0
8	15	41	22	290	202.0	-192837.0	1679.0	16533.0
8	15	41	22	291	203.0	-192777.0	1674.0	17084.0
8	15	41	22	292	204.0	-192986.0	1678.0	16802.0
8	15	41	22	292	205.0	-192772.0	1673.0	15838.0
8	15	41	22	293	206.0	-192456.0	1656.0	15905.0
8	15	41	22	313	207.0	-192162.0	1653.0	16143.0
8	15	41	22	314	208.0	-191896.0	1648.0	15980.0
8	15	41	22	314	209.0	-192156.0	1661.0	15768.0
8	15	41	22	315	210.0	-192381.0	1644.0	15737.0
8	15	41	22	316	211.0	-193122.0	1629.0	15636.0
8	15	41	22	317	212.0	-194654.0	1620.0	15681.0
8	15	41	22	317	213.0	-196229.0	1599.0	15929.0
8	15	41	22	318	214.0	-198172.0	1599.0	15815.0
8	15	41	22	318	215.0	-199732.0	1604.0	15559.0
8	15	41	22	319	216.0	-200877.0	1597.0	15331.0
8	15	41	22	319	217.0	-201704.0	1596.0	15101.0
8	15	41	22	320	218.0	-202151.0	1593.0	14753.0
8	15	41	22	321	219.0	-202424.0	1569.0	14696.0
8	15	41	22	321	220.0	-202272.0	1579.0	14769.0
8	15	41	22	322	221.0	-202385.0	1568.0	14687.0
8	15	41	22	322	222.0	-202771.0	1558.0	14737.0
8	15	41	22	340	223.0	-203244.0	1539.0	14754.0
8	15	41	22	340	224.0	-203576.0	1536.0	15083.0
8	15	41	22	341	225.0	-203200.0	1525.0	15380.0
8	15	41	22	342	226.0	-202681.0	1523.0	15329.0
8	15	41	22	342	227.0	-202156.0	1516.0	15285.0
8	15	41	22	343	228.0	-201847.0	1511.0	15348.0
8	15	41	22	344	229.0	-201748.0	1488.0	15478.0
8	15	41	22	363	230.0	-199774.0	1470.0	15280.0
8	15	41	22	363	231.0	-198320.0	1448.0	15044.0
8	15	41	22	364	232.0	-197458.0	1446.0	15203.0
8	15	41	22	365	233.0	-196585.0	1456.0	15059.0
8	15	41	22	386	234.0	-195126.0	1453.0	15112.0
8	15	41	22	386	235.0	-193369.0	1436.0	15093.0
8	15	41	22	387	236.0	-191541.0	1443.0	15266.0
8	15	41	22	388	237.0	-189361.0	1431.0	15013.0
8	15	41	22	388	238.0	-187102.0	1408.0	15134.0
8	15	41	22	389	239.0	-185527.0	1395.0	15043.0
8	15	41	22	389	240.0	-184801.0	1395.0	14748.0
8	15	41	22	390	241.0	-184757.0	1397.0	14873.0
8	15	41	22	391	242.0	-185089.0	1398.0	15026.0
8	15	41	22	391	243.0	-185886.0	1386.0	15109.0
8	15	41	22	392	244.0	-186624.0	1390.0	14969.0
8	15	41	22	393	245.0	-186776.0	1399.0	14974.0
8	15	41	22	393	246.0	-187176.0	1396.0	14854.0
8	15	41	22	394	247.0	-187334.0	1386.0	15082.0
8	15	41	22	394	248.0	-187372.0	1376.0	15262.0
8	15	41	22	395	249.0	-187486.0	1360.0	15199.0
8	15	41	22	395	251.0	-186622.0	1336.0	15856.0
8	15	41	22	396	252.0	-186301.0	1319.0	15774.0
8	15	41	22	397	253.0	-185258.0	1334.0	15932.0
8	15	41	22	397	254.0	-184117.0	1341.0	15938.0
8	15	41	22	398	255.0	-183091.0	1322.0	15801.0
8	15	41	22	398	0.0	-182149.0	1322.0	16053.0
8	15	41	22	399	1.0	-180912.0	1325.0	16231.0
8	15	41	22	400	2.0	-179906.0	1312.0	16125.0
8	15	41	22	400	3.0	-179630.0	1301.0	15861.0
8	15	41	22	401	4.0	-179163.0	1298.0	15946.0
8	15	41	22	402	5.0	-179197.0	1298.0	15842.0
8	15	41	22	402	6.0	-180128.0	1294.0	15685.0
8	15	41	22	403	7.0	-181994.0	1279.0	16005.0
8	15	41	22	404	8.0	-184693.0	1275.0	15686.0
8	15	41	22	404	9.0	-187986.0	1274.0	15165.0
8	15	41	22	405	10.0	-192018.0	1269.0	15644.0
8	15	41	22	416	11.0	-196209.0	1263.0	15724.0
8	15	41	22	417	12.0	-199682.0	1265.0	15396.0
8	15	41	22	418	13.0	-202723.0	1248.0	15540.0
8	15	41	22	418	14.0	-205411.0	1243.0	16024.0
8	15	41	22	419	15.0	-207251.0	1225.0	15946.0
8	15	41	22	419	16.0	-208539.0	1240.0	16213.0
8	15	41	22	436	17.0	-209866.0	1245.0	16802.0
8	15	41	22	436	18.0	-210642.0	1249.0	17081.0
8	15	41	22	437	19.0	-210773.0	1250.0	17801.0
8	15	41	22	438	20.0	-210651.0	1244.0	18839.0
8	15	41	22	438	21.0	-210081.0	1230.0	19588.0
8	15	41	22	439	22.0	-209442.0	1239.0	19834.0
8	15	41	22	439	23.0	-208259.0	1234.0	19928.0
8	15	41	22	440	24.0	-206637.0	1235.0	19259.0
8	15	41	22	440	25.0	-204796.0	1223.0	17758.0
8	15	41	22	441	26.0	-203218.0	1218.0	15197.0
8	15	41	22	478	27.0	-202115.0	1222.0	11474.0
8	15	41	22	479	28.0	-201399.0	1211.0	7248.0
8	15	41	22	480	29.0	-201479.0	1212.0	2737.0
8	15	41	22	481	30.0	-202838.0	1230.0	-1082.0
8	15	41	22	481	31.0	-204749.0	1222.0	-4762.0
8	15	41	22	482	32.0	-207291.0	1206.0	-9452.0
8	15	41	22	483	33.0	-209394.0	1217.0	-15825.0
8	15	41	22	483	34.0	-210695.0	1222.0	-23611.0
8	15	41	22	484	35.0	-210921.0	1221.0	-30859.0
8	15	41	22	485	36.0	-209612.0	1231.0	-37412.0
8	15	41	22	485	37.0	-207298.0	1225.0	-42872.0
8	15	41	22	486	38.0	-204277.0	1213.0	-46418.0
8	15	41	22	487	39.0	-200382.0	1208.0	-47022.0
8	15	41	22	487	40.0	-196131.0	1217.0	-44207.0
8	15	41	22	488	41.0	-192199.0	1234.0	-37303.0
8	15	41	22	488	47.0	-174661.0	1243.0	22561.0
8	15	41	22	489	48.0	-165846.0	1241.0	21919.0
8	15	41	22	490	49.0	-155001.0	1220.0	21954.0
8	15	41	22	490	50.0	-143351.0	1206.0	21882.0
8	15	41	22	491	51.0	-133363.0	1209.0	21593.0
8	15	41	22	492	52.0	-125751.0	1205.0	21526.0
8	15	41	22	493	53.0	-123181.0	1214.0	21468.0
8	15	41	22	493	54.0	-132268.0	1214.0	21404.0
8	15	41	22	508	55.0	-152923.0	1196.0	21665.0
8	15	41	22	508	56.0	-175445.0	1201.0	21794.0
8	15	41	22	509	57.0	-190592.0	1213.0	21702.0
8	15	41	22	510	58.0	-196451.0	1199.0	21224.0
8	15	41	22	510	59.0	-193021.0	1209.0	20452.0
8	15	41	22	511	60.0	-185499.0	1209.0	20208.0
8	15	41	22	512	61.0	-185745.0	1215.0	20245.0
8	15	41	22	512	62.0	-196936.0	1210.0	19865.0
8	15	41	22	513	63.0	-209278.0	1210.0	19346.0
8	15	41	22	513	64.0	-214269.0	1218.0	19395.0
8	15	41	22	524	65.0	-209629.0	1204.0	19258.0
8	15	41	22	525	66.0	-197839.0	1191.0	19366.0
8	15	41	22	525	67.0	-187506.0	1190.0	19346.0
8	15	41	22	526	68.0	-183474.0	1193.0	18999.0
8	15	41	22	526	69.0	-183579.0	1209.0	18789.0
8	15	41	22	527	70.0	-184954.0	1213.0	18973.0
8	15	41	22	546	71.0	-186763.0	1212.0	18979.0
8	15	41	22	547	72.0	-188661.0	1235.0	18625.0
8	15	41	22	548	73.0	-191915.0	1228.0	18577.0
8	15	41	22	548	74.0	-197114.0	1217.0	18383.0
8	15	41	22	549	75.0	-204073.0	1222.0	18290.0
8	15	41	22	550	76.0	-210377.0	1218.0	18143.0
8	15	41	22	550	77.0	-212882.0	1231.0	18270.0
8	15	41	22	551	78.0	-212431.0	1232.0	18564.0
8	15	41	22	583	79.0	-209811.0	1244.0	18277.0
8	15	41	22	584	80.0	-205712.0	1234.0	18261.0
8	15	41	22	585	81.0	-200146.0	1232.0	18056.0
8	15	41	22	586	82.0	-192446.0	1240.0	17784.0
8	15	41	22	586	83.0	-184047.0	1253.0	17879.0
8	15	41	22	587	84.0	-175380.0	1236.0	17597.0
8	15	41	22	588	85.0	-168240.0	1228.0	17865.0
8	15	41	22	589	86.0	-164157.0	1238.0	17735.0
8	15	41	22	589	87.0	-160867.0	1225.0	17412.0
8	15	41	22	590	88.0	-158283.0	1237.0	17344.0
8	15	41	22	591	89.0	-156311.0	1234.0	17313.0
8	15	41	22	591	90.0	-154815.0	1233.0	17368.0
8	15	41	22	592	91.0	-154593.0	1254.0	16913.0
8	15	41	22	592	92.0	-155713.0	1257.0	16794.0
8	15	41	22	593	93.0	-158823.0	1252.0	16531.0
8	15	41	22	593	94.0	-163534.0	1228.0	16548.0
8	15	41	22	594	100.0	-193474.0	1240.0	16429.0
8	15	41	22	595	101.0	-194714.0	1234.0	16013.0
8	15	41	22	595	102.0	-194049.0	1228.0	16106.0
8	15	41	22	596	103.0	-191919.0	1216.0	15840.0
8	15	41	22	597	104.0	-189549.0	1219.0	15485.0
8	15	41	22	597	105.0	-186311.0	1199.0	15513.0
8	15	41	22	598	106.0	-183349.0	1199.0	15639.0
8	15	41	22	598	107.0	-180782.0	1199.0	15458.0
8	15	41	22	612	108.0	-178531.0	1181.0	15314.0
8	15	41	22	613	109.0	-177023.0	1186.0	15058.0
8	15	41	22	614	110.0	-175661.0	1193.0	15003.0
8	15	41	22	614	111.0	-174913.0	1191.0	14771.0
8	15	41	22	615	112.0	-174975.0	1183.0	14827.0
8	15	41	22	616	113.0	-176093.0	1166.0	14425.0
8	15	41	22	616	114.0	-178289.0	1181.0	14105.0
8	15	41	22	617	115.0	-180309.0	1169.0	14219.0
8	15	41	22	617	116.0	-181979.0	1143.0	14331.0
8	15	41	22	632	117.0	-183452.0	1149.0	14158.0
8	15	41	22	633	118.0	-184513.0	1139.0	14246.0
8	15	41	22	633	119.0	-185654.0	1123.0	13949.0
8	15	41	22	634	120.0	-186137.0	1124.0	13942.0
8	15	41	22	634	121.0	-186439.0	1125.0	14083.0
8	15	41	22	635	122.0	-186520.0	1111.0	13554.0
8	15	41	22	656	123.0	-186679.0	1090.0	13461.0
8	15	41	22	656	124.0	-186486.0	1096.0	13220.0
8	15	41	22	657	125.0	-185555.0	1111.0	13318.0
8	15	41	22	658	126.0	-184253.0	1092.0	13136.0
8	15	41	22	659	127.0	-182730.0	1059.0	13241.0
8	15	41	22	659	128.0	-180859.0	1063.0	13021.0
8	15	41	22	660	129.0	-179309.0	1056.0	12603.0
8	15	41	22	660	130.0	-177954.0	1048.0	12388.0
8	15	41	22	661	131.0	-176871.0	1045.0	11194.0
8	15	41	22	662	132.0	-176877.0	1048.0	9341.0
8	15	41	22	662	133.0	-177534.0	1039.0	9011.0
8	15	41	22	663	134.0	-178765.0	1024.0	9020.0
8	15	41	22	663	135.0	-180379.0	1008.0	8373.0
8	15	41	22	664	136.0	-181693.0	1024.0	8039.0
8	15	41	22	665	137.0	-182786.0	1023.0	8166.0
8	15	41	22	685	138.0	-183465.0	1018.0	8017.0
8	15	41	22	686	139.0	-183427.0	1021.0	7698.0
8	15	41	22	702	140.0	-183197.0	1028.0	7352.0
8	15	41	22	702	141.0	-182771.0	1005.0	6861.0
8	15	41	22	703	142.0	-182566.0	993.0	6816.0
8	15	41	22	704	143.0	-182167.0	1005.0	6708.0
8	15	41	22	704	144.0	-181702.0	998.0	6363.0
8	15	41	22	705	145.0	-182028.0	992.0	6273.0
8	15	41	22	705	146.0	-182591.0	986.0	6393.0
8	15	41	22	725	147.0	-183424.0	995.0	6011.0
8	15	41	22	726	148.0	-184632.0	1014.0	5899.0
8	15	41	22	726	149.0	-185811.0	1030.0	6074.0
8	15	41	22	727	150.0	-187149.0	1029.0	5826.0
8	15	41	22	727	151.0	-188142.0	1033.0	5438.0
8	15	41	22	728	152.0	-189702.0	1056.0	5541.0
8	15	41	22	728	153.0	-191905.0	1071.0	5334.0
8	15	41	22	729	154.0	-193682.0	1073.0	5277.0
8	15	41	22	730	159.0	-201253.0	1173.0	4933.0
8	15	41	22	730	160.0	-202401.0	1185.0	4775.0
8	15	41	22	731	161.0	-203446.0	1217.0	4409.0
8	15	41	22	731	162.0	-204183.0	1257.0	4021.0
8	15	41	22	732	163.0	-205511.0	1273.0	4164.0
8	15	41	22	732	164.0	-206389.0	1279.0	4074.0
8	15	41	22	733	165.0	-207171.0	1308.0	4269.0
8	15	41	22	734	166.0	-208287.0	1344.0	4663.0
8	15	41	22	734	167.0	-209041.0	1388.0	4521.0
8	15	41	22	735	168.0	-209731.0	1428.0	4584.0
8	15	41	22	735	169.0	-209897.0	1462.0	4446.0
8	15	41	22	736	170.0	-209347.0	1489.0	4447.0
8	15	41	22	736	171.0	-208962.0	1524.0	4989.0
8	15	41	22	737	172.0	-208317.0	1555.0	5241.0
8	15	41	22	737	173.0	-207687.0	1589.0	5318.0
8	15	41	22	738	174.0	-207021.0	1624.0	5961.0
8	15	41	22	738	175.0	-205707.0	1644.0	6163.0
8	15	41	22	748	176.0	-204642.0	1691.0	6442.0
8	15	41	22	748	177.0	-203487.0	1734.0	6789.0
8	15	41	22	749	178.0	-201614.0	1753.0	6801.0
8	15	41	22	749	179.0	-199425.0	1779.0	6427.0
8	15	41	22	750	180.0	-197123.0	1813.0	6848.0
8	15	41	22	751	181.0	-195001.0	1868.0	7360.0
8	15	41	22	751	182.0	-192688.0	1911.0	7074.0
8	15	41	22	752	183.0	-190366.0	1939.0	7428.0
8	15	41	22	770	184.0	-188281.0	1958.0	8026.0
8	15	41	22	771	185.0	-186202.0	1983.0	8557.0
8	15	41	22	771	186.0	-184153.0	2018.0	8398.0
8	15	41	22	772	187.0	-182430.0	2054.0	8555.0
8	15	41	22	773	188.0	-181139.0	2083.0	9096.0
8	15	41	22	773	189.0	-180750.0	2133.0	9043.0
8	15	41	22	774	190.0	-181067.0	2150.0	8841.0
8	15	41	22	808	191.0	-182106.0	2183.0	9144.0
8	15	41	22	831	192.0	-183879.0	2225.0	9318.0
8	15	41	22	832	193.0	-185826.0	2246.0	9164.0
8	15	41	22	832	194.0	-188295.0	2269.0	9139.0
8	15	41	22	833	195.0	-191561.0	2286.0	9268.0
8	15	41	22	833	196.0	-196416.0	2328.0	9434.0
8	15	41	22	834	197.0	-202260.0	2354.0	9629.0
8	15	41	22	834	198.0	-209052.0	2361.0	9551.0
8	15	41	22	835	199.0	-216312.0	2381.0	9553.0
8	15	41	22	835	200.0	-221791.0	2409.0	9491.0
8	15	41	22	836	201.0	-224779.0	2421.0	9338.0
8	15	41	22	837	202.0	-229860.0	2423.0	9346.0
8	15	41	22	837	203.0	-226442.0	2451.0	9493.0
8	15	41	22	838	204.0	-224034.0	2469.0	9171.0
8	15	41	22	838	205.0	-227006.0	2499.0	9264.0
8	15	41	22	839	206.0	-231567.0	2514.0	9668.0
8	15	41	22	839	212.0	-240353.0	2560.0	9395.0
8	15	41	22	840	213.0	-230184.0	2573.0	9714.0
8	15	41	22	841	214.0	-218283.0	2593.0	9480.0
8	15	41	22	841	215.0	-207466.0	2589.0	9254.0
8	15	41	22	842	216.0	-200051.0	2593.0	9331.0
8	15	41	22	842	217.0	-196817.0	2592.0	9283.0
8	15	41	22	843	218.0	-196039.0	2599.0	9131.0
8	15	41	22	843	219.0	-195894.0	2613.0	9461.0
8	15	41	22	844	220.0	-195397.0	2612.0	9063.0
8	15	41	22	844	221.0	-195076.0	2625.0	8568.0
8	15	41	22	845	222.0	-195264.0	2624.0	8626.0
8	15	41	22	845	223.0	-195936.0	2624.0	8660.0
8	15	41	22	846	224.0	-197297.0	2626.0	8841.0
8	15	41	22	846	225.0	-199119.0	2628.0	8798.0
8	15	41	22	847	226.0	-200608.0	2633.0	8870.0
8	15	41	22	848	227.0	-201495.0	2644.0	8566.0
8	15	41	22	848	228.0	-201685.0	2651.0	8673.0
8	15	41	22	855	229.0	-199959.0	2670.0	8552.0
8	15	41	22	856	230.0	-196742.0	2668.0	8544.0
8	15	41	22	857	231.0	-192711.0	2658.0	8549.0
8	15	41	22	857	232.0	-190598.0	2654.0	8708.0
8	15	41	22	858	233.0	-186014.0	2661.0	8373.0
8	15	41	22	858	234.0	-179955.0	2654.0	8632.0
8	15	41	22	859	235.0	-176187.0	2630.0	8989.0
8	15	41	22	880	236.0	-174751.0	2634.0	8759.0
8	15	41	22	880	237.0	-173542.0	2639.0	8764.0
8	15	41	22	881	238.0	-172000.0	2646.0	9288.0
8	15	41	22	881	239.0	-170241.0	2631.0	9199.0
8	15	41	22	882	240.0	-167731.0	2631.0	8971.0
8	15	41	22	883	241.0	-165008.0	2636.0	9203.0
8	15	41	22	883	242.0	-162911.0	2638.0	9472.0
8	15	41	22	884	243.0	-161503.0	2624.0	9411.0
8	15	41	22	913	244.0	-160497.0	2628.0	9214.0
8	15	41	22	913	245.0	-159405.0	2609.0	8979.0
8	15	41	22	914	246.0	-158442.0	2616.0	9198.0
8	15	41	22	915	247.0	-158089.0	2600.0	9360.0
8	15	41	22	915	248.0	-158446.0	2594.0	9208.0
8	15	41	22	916	249.0	-159072.0	2599.0	9475.0
8	15	41	22	917	250.0	-159820.0	2613.0	9613.0
8	15	41	22	917	251.0	-161101.0	2597.0	9693.0
8	15	41	22	918	252.0	-162493.0	2599.0	9495.0
8	15	41	22	918	253.0	-164499.0	2594.0	9522.0
8	15	41	22	919	254.0	-167011.0	2588.0	9514.0
8	15	41	22	920	255.0	-169858.0	2581.0	9444.0
8	15	41	22	929	0.0	-173220.0	2565.0	9423.0
8	15	41	22	930	1.0	-176337.0	2554.0	9621.0
8	15	41	22	931	2.0	-179747.0	2561.0	9367.0
8	15	41	22	931	8.0	-197438.0	2524.0	9720.0
8	15	41	22	932	9.0	-199610.0	2509.0	9721.0
8	15	41	22	932	10.0	-201597.0	2516.0	9836.0
8	15	41	22	933	11.0	-203141.0	2503.0	9541.0
8	15	41	22	934	12.0	-204703.0	2486.0	9441.0
8	15	41	22	934	13.0	-206602.0	2488.0	9615.0
8	15	41	22	935	14.0	-208171.0	2473.0	10206.0
8	15	41	22	935	15.0	-210081.0	2460.0	9860.0
8	15	41	22	936	16.0	-212317.0	2451.0	9778.0
8	15	41	22	937	17.0	-214099.0	2451.0	10518.0
8	15	41	22	937	18.0	-216310.0	2447.0	10399.0
8	15	41	22	938	19.0	-218667.0	2424.0	10328.0
8	15	41	22	953	20.0	-220954.0	2408.0	10543.0
8	15	41	22	953	21.0	-223423.0	2419.0	10233.0
8	15	41	22	954	22.0	-225538.0	2404.0	10064.0
8	15	41	22	955	23.0	-227321.0	2389.0	10251.0
8	15	41	22	976	24.0	-228967.0	2390.0	10174.0
8	15	41	22	977	25.0	-229961.0	2400.0	10312.0
8	15	41	22	977	26.0	-230732.0	2404.0	10146.0
8	15	41	22	978	27.0	-231151.0	2386.0	10139.0
8	15	41	22	978	28.0	-231404.0	2373.0	10151.0
8	15	41	22	979	29.0	-231702.0	2373.0	10278.0
8	15	41	22	980	30.0	-231762.0	2371.0	10063.0
8	15	41	22	980	31.0	-231424.0	2360.0	10051.0
8	15	41	22	981	32.0	-230372.0	2363.0	10203.0
8	15	41	22	981	33.0	-228699.0	2342.0	9971.0
8	15	41	22	982	34.0	-226480.0	2346.0	9921.0
8	15	41	22	982	35.0	-223544.0	2346.0	10076.0
8	15	41	22	983	36.0	-220276.0	2340.0	9669.0
8	15	41	22	983	37.0	-216821.0	2336.0	9454.0
8	15	41	22	984	38.0	-213204.0	2348.0	9823.0
8	15	41	22	984	39.0	-209762.0	2334.0	9899.0
8	15	41	23	0	40.0	-206607.0	2331.0	9805.0
8	15	41	23	0	41.0	-203580.0	2323.0	9834.0
8	15	41	23	1	42.0	-201095.0	2300.0	10012.0
8	15	41	23	1	43.0	-199027.0	2315.0	9638.0
8	15	41	23	2	44.0	-197041.0	2320.0	9591.0
8	15	41	23	2	45.0	-195304.0	2305.0	9493.0
8	15	41	23	3	46.0	-193522.0	2292.0	9276.0
8	15	41	23	32	47.0	-192094.0	2296.0	9110.0
8	15	41	23	33	48.0	-191341.0	2294.0	9771.0
8	15	41	23	34	49.0	-190990.0	2310.0	10083.0
8	15	41	23	35	50.0	-191346.0	2306.0	9478.0
8	15	41	23	35	51.0	-192207.0	2309.0	9112.0
8	15	41	23	36	52.0	-193851.0	2317.0	9283.0
8	15	41	23	37	53.0	-195947.0	2301.0	9333.0
8	15	41	23	37	54.0	-198312.0	2281.0	9340.0
8	15	41	23	38	55.0	-200732.0	2292.0	9042.0
8	15	41	23	38	56.0	-202701.0	2303.0	8890.0
8	15	41	23	39	57.0	-204693.0	2292.0	8941.0
8	15	41	23	40	58.0	-206262.0	2293.0	9093.0
8	15	41	23	40	59.0	-207350.0	2309.0	9330.0
8	15	41	23	42	60.0	-208661.0	2298.0	9265.0
8	15	41	23	42	61.0	-209265.0	2296.0	9312.0
8	15	41	23	43	68.0	-206684.0	2292.0	9327.0
8	15	41	23	44	69.0	-205548.0	2282.0	9012.0
8	15	41	23	44	70.0	-204096.0	2299.0	9188.0
8	15	41	23	45	71.0	-202612.0	2295.0	9345.0
8	15	41	23	53	72.0	-201066.0	2271.0	9147.0
8	15	41	23	53	73.0	-199541.0	2275.0	9306.0
8	15	41	23	54	74.0	-197782.0	2269.0	9593.0
8	15	41	23	54	75.0	-196147.0	2266.0	9191.0
8	15	41	23	76	76.0	-195100.0	2286.0	9364.0
8	15	41	23	76	77.0	-194344.0	2281.0	9458.0
8	15	41	23	77	78.0	-193756.0	2283.0	9258.0
8	15	41	23	78	79.0	-193639.0	2281.0	9277.0
8	15	41	23	78	80.0	-193484.0	2289.0	9567.0
8	15	41	23	79	81.0	-193112.0	2284.0	9713.0
8	15	41	23	80	82.0	-192996.0	2286.0	9297.0
8	15	41	23	80	83.0	-193393.0	2296.0	9231.0
8	15	41	23	81	84.0	-193873.0	2287.0	9364.0
8	15	41	23	81	85.0	-194392.0	2269.0	9306.0
8	15	41	23	82	86.0	-194745.0	2270.0	9188.0
8	15	41	23	83	87.0	-194881.0	2269.0	9245.0
8	15	41	23	83	88.0	-195231.0	2257.0	10008.0
8	15	41	23	84	89.0	-195373.0	2241.0	9823.0
8	15	41	23	84	90.0	-195230.0	2244.0	9885.0
8	15	41	23	85	91.0	-195094.0	2250.0	9952.0
8	15	41	23	98	92.0	-194719.0	2239.0	9894.0
8	15	41	23	99	93.0	-194118.0	2236.0	9921.0
8	15	41	23	100	94.0	-193306.0	2251.0	9874.0
8	15	41	23	100	95.0	-191966.0	2234.0	10251.0
8	15	41	23	101	96.0	-190826.0	2234.0	10259.0
8	15	41	23	101	97.0	-189279.0	2234.0	9716.0
8	15	41	23	102	98.0	-187214.0	2226.0	9781.0
8	15	41	23	103	99.0	-185028.0	2216.0	10078.0
8	15	41	23	139	100.0	-182941.0	2207.0	9948.0
8	15	41	23	140	101.0	-181234.0	2204.0	9854.0
8	15	41	23	141	102.0	-180109.0	2198.0	9998.0
8	15	41	23	142	103.0	-179639.0	2183.0	9722.0
8	15	41	23	142	104.0	-179281.0	2181.0	9425.0
8	15	41	23	143	105.0	-178876.0	2179.0	9507.0
8	15	41	23	144	106.0	-178217.0	2159.0	9704.0
8	15	41	23	144	107.0	-177201.0	2159.0	9454.0
8	15	41	23	145	108.0	-176147.0	2150.0	9755.0
8	15	41	23	145	109.0	-174674.0	2138.0	10486.0
8	15	41	23	146	110.0	-173027.0	2128.0	10427.0
8	15	41	23	147	111.0	-171214.0	2113.0	10571.0
8	15	41	23	147	112.0	-169283.0	2099.0	10578.0
8	15	41	23	148	113.0	-167209.0	2102.0	10381.0
8	15	41	23	148	114.0	-164621.0	2098.0	10459.0
8	15	41	23	149	115.0	-162167.0	2088.0	10269.0
8	15	41	23	150	121.0	-155975.0	2004.0	10093.0
8	15	41	23	150	122.0	-156271.0	1993.0	9773.0
8	15	41	23	151	123.0	-156685.0	1969.0	9530.0
8	15	41	23	151	124.0	-156999.0	1968.0	9470.0
8	15	41	23	152	125.0	-157521.0	1943.0	9267.0
8	15	41	23	153	126.0	-158755.0	1936.0	9141.0
8	15	41	23	153	127.0	-160060.0	1935.0	9141.0
8	15	41	23	162	128.0	-161457.0	1902.0	9147.0
8	15	41	23	184	129.0	-162838.0	1873.0	9308.0
8	15	41	23	185	130.0	-164706.0	1869.0	9434.0
8	15	41	23	186	131.0	-167176.0	1863.0	9537.0
8	15	41	23	186	132.0	-169441.0	1849.0	9192.0
8	15	41	23	187	133.0	-171791.0	1826.0	9391.0
8	15	41	23	188	134.0	-173861.0	1806.0	9420.0
8	15	41	23	188	135.0	-175697.0	1802.0	8641.0
8	15	41	23	189	136.0	-178017.0	1770.0	8457.0
8	15	41	23	189	137.0	-180181.0	1759.0	8779.0
8	15	41	23	190	138.0	-182186.0	1741.0	9074.0
8	15	41	23	190	139.0	-183793.0	1721.0	8750.0
8	15	41	23	191	140.0	-184988.0	1711.0	8454.0
8	15	41	23	192	141.0	-186124.0	1696.0	8519.0
8	15	41	23	192	142.0	-187029.0	1673.0	8181.0
8	15	41	23	193	143.0	-187487.0	1663.0	8032.0
8	15	41	23	207	144.0	-187531.0	1662.0	8034.0
8	15	41	23	208	145.0	-186896.0	1642.0	7663.0
8	15	41	23	209	146.0	-186417.0	1636.0	7801.0
8	15	41	23	209	147.0	-186093.0	1644.0	7806.0
8	15	41	23	210	148.0	-185931.0	1621.0	7434.0
8	15	41	23	211	149.0	-186401.0	1591.0	7594.0
8	15	41	23	211	150.0	-187062.0	1574.0	7397.0
8	15	41	23	212	151.0	-187991.0	1564.0	7286.0
8	15	41	23	213	152.0	-189413.0	1566.0	7563.0
8	15	41	23	213	153.0	-191441.0	1561.0	6934.0
8	15	41	23	214	154.0	-193850.0	1526.0	6629.0
8	15	41	23	214	155.0	-196439.0	1515.0	6873.0
8	15	41	23	215	156.0	-199355.0	1504.0	6746.0
8	15	41	23	216	157.0	-201596.0	1486.0	6195.0
8	15	41	23	216	158.0	-202876.0	1487.0	6294.0
8	15	41	23	242	159.0	-203261.0	1475.0	6111.0
8	15	41	23	243	160.0	-202716.0	1469.0	5970.0
8	15	41	23	244	161.0	-201664.0	1454.0	5781.0
8	15	41	23	245	162.0	-200368.0	1440.0	6039.0
8	15	41	23	245	163.0	-198792.0	1439.0	6047.0
8	15	41	23	246	164.0	-197342.0	1440.0	5354.0
8	15	41	23	260	165.0	-196510.0	1418.0	5248.0
8	15	41	23	261	166.0	-195867.0	1417.0	5125.0
8	15	41	23	262	167.0	-195272.0	1401.0	5095.0
8	15	41	23	262	168.0	-195018.0	1381.0	5007.0
8	15	41	23	263	169.0	-194841.0	1384.0	5041.0
8	15	41	23	264	170.0	-195221.0	1381.0	4790.0
8	15	41	23	264	171.0	-195271.0	1359.0	4535.0
8	15	41	23	265	172.0	-194984.0	1362.0	4251.0
8	15	41	23	265	173.0	-194327.0	1361.0	3699.0
8	15	41	23	266	174.0	-193276.0	1362.0	2689.0
8	15	41	23	267	175.0	-191988.0	1363.0	2222.0
8	15	41	23	267	176.0	-190110.0	1344.0	1676.0
8	15	41	23	268	177.0	-187649.0	1338.0	1161.0
8	15	41	23	268	178.0	-184924.0	1365.0	580.0
8	15	41	23	269	179.0	-182552.0	1333.0	-251.0
8	15	41	23	269	180.0	-181236.0	1324.0	-454.0
8	15	41	23	270	181.0	-180430.0	1329.0	-413.0
8	15	41	23	271	182.0	-179906.0	1338.0	-956.0
8	15	41	23	271	183.0	-180045.0	1331.0	-889.0
8	15	41	23	272	184.0	-180756.0	1301.0	-803.0
8	15	41	23	272	185.0	-182154.0	1298.0	-1311.0
8	15	41	23	273	186.0	-183677.0	1303.0	-1437.0
8	15	41	23	274	187.0	-184442.0	1307.0	-1171.0
8	15	41	23	274	188.0	-184945.0	1286.0	-1232.0
8	15	41	23	287	189.0	-185400.0	1274.0	-1487.0
8	15	41	23	287	190.0	-186195.0	1272.0	-1280.0
8	15	41	23	288	191.0	-186970.0	1273.0	-1273.0
8	15	41	23	289	192.0	-187665.0	1279.0	-1477.0
8	15	41	23	289	193.0	-188291.0	1278.0	-1565.0
8	15	41	23	290	194.0	-188596.0	1269.0	-1095.0
8	15	41	23	291	195.0	-189112.0	1251.0	-1446.0
8	15	41	23	291	196.0	-189908.0	1258.0	-1847.0
8	15	41	23	310	197.0	-191034.0	1251.0	-1779.0
8	15	41	23	311	198.0	-192602.0	1229.0	-1716.0
8	15	41	23	311	199.0	-194379.0	1224.0	-1896.0
8	15	41	23	312	200.0	-196604.0	1225.0	-2157.0
8	15	41	23	313	201.0	-199202.0	1233.0	-2277.0
8	15	41	23	313	202.0	-201992.0	1218.0	-2347.0
8	15	41	23	314	203.0	-205339.0	1210.0	-2376.0
8	15	41	23	314	204.0	-208640.0	1211.0	-2394.0
8	15	41	23	334	205.0	-211480.0	1193.0	-2551.0
8	15	41	23	334	206.0	-213993.0	1176.0	-2857.0
8	15	41	23	335	207.0	-215887.0	1181.0	-2906.0
8	15	41	23	336	208.0	-216592.0	1174.0	-3199.0
8	15	41	23	336	209.0	-216486.0	1166.0	-2702.0
8	15	41	23	337	210.0	-215289.0	1164.0	-2622.0
8	15	41	23	338	211.0	-213302.0	1163.0	-2249.0
8	15	41	23	362	212.0	-210946.0	1138.0	-1243.0
8	15	41	23	363	213.0	-208234.0	1133.0	-326.0
8	15	41	23	363	214.0	-205160.0	1116.0	-53.0
8	15	41	23	364	215.0	-201755.0	1100.0	417.0
8	15	41	23	365	216.0	-198557.0	1116.0	-54.0
8	15	41	23	366	217.0	-195690.0	1096.0	-1884.0
8	15	41	23	366	218.0	-192739.0	1084.0	-4432.0
8	15	41	23	367	219.0	-190040.0	1091.0	-7644.0
8	15	41	23	368	220.0	-187968.0	1089.0	-11751.0
8	15	41	23	369	221.0	-186608.0	1072.0	-16273.0
8	15	41	23	369	222.0	-185872.0	1069.0	-20079.0
8	15	41	23	370	223.0	-186288.0	1087.0	-23515.0
8	15	41	23	370	224.0	-187738.0	1079.0	-27414.0
8	15	41	23	371	225.0	-189215.0	1068.0	-32612.0
8	15	41	23	372	226.0	-190614.0	1076.0	-39455.0
8	15	41	23	372	233.0	-173831.0	1016.0	-66231.0
8	15	41	23	374	234.0	-169014.0	999.0	-57484.0
8	15	41	23	374	235.0	-164733.0	989.0	-46463.0
8	15	41	23	382	236.0	-160715.0	998.0	-32436.0
8	15	41	23	383	237.0	-157426.0	998.0	-19007.0
8	15	41	23	383	238.0	-154561.0	991.0	-7937.0
8	15	41	23	384	239.0	-148904.0	995.0	-1398.0
8	15	41	23	384	240.0	-138892.0	994.0	-1699.0
8	15	41	23	404	241.0	-127063.0	992.0	-1787.0
8	15	41	23	405	242.0	-112977.0	1001.0	-2293.0
8	15	41	23	406	243.0	-101037.0	994.0	-2972.0
8	15	41	23	407	244.0	-92999.0	999.0	-3148.0
8	15	41	23	407	245.0	-93663.0	1016.0	-3246.0
8	15	41	23	408	246.0	-107139.0	1003.0	-3200.0
8	15	41	23	409	247.0	-129454.0	1021.0	-2361.0
8	15	41	23	409	248.0	-150335.0	1013.0	-2267.0
8	15	41	23	410	249.0	-162423.0	1001.0	-2806.0
8	15	41	23	411	250.0	-165678.0	1011.0	-3089.0
8	15	41	23	411	251.0	-163486.0	1006.0	-3229.0
8	15	41	23	412	252.0	-164468.0	1011.0	-3933.0
8	15	41	23	412	253.0	-174165.0	1024.0	-4259.0
8	15	41	23	413	254.0	-187799.0	1026.0	-4244.0
8	15	41	23	413	255.0	-199152.0	1024.0	-4259.0
8	15	41	23	414	0.0	-201773.0	1006.0	-4707.0
8	15	41	23	427	1.0	-194084.0	1012.0	-4503.0
8	15	41	23	427	2.0	-183602.0	1004.0	-4737.0
8	15	41	23	428	3.0	-176641.0	1009.0	-4962.0
8	15	41	23	429	4.0	-174136.0	999.0	-4719.0
8	15	41	23	429	5.0	-174255.0	999.0	-5001.0
8	15	41	23	430	6.0	-174312.0	999.0	-5101.0
8	15	41	23	430	7.0	-174547.0	1018.0	-5347.0
8	15	41	23	449	8.0	-176975.0	1019.0	-5198.0
8	15	41	23	450	9.0	-181142.0	1020.0	-5284.0
8	15	41	23	451	10.0	-185332.0	1013.0	-5068.0
8	15	41	23	452	11.0	-188996.0	1020.0	-5100.0
8	15	41	23	452	12.0	-192526.0	1009.0	-5212.0
8	15	41	23	453	13.0	-195357.0	995.0	-5348.0
8	15	41	23	454	14.0	-195716.0	1013.0	-5284.0
8	15	41	23	454	15.0	-193236.0	1008.0	-5638.0
8	15	41	23	472	16.0	-187947.0	1009.0	-5556.0
8	15	41	23	473	17.0	-180126.0	1010.0	-5497.0
8	15	41	23	473	18.0	-170834.0	1015.0	-5847.0
8	15	41	23	474	19.0	-161441.0	1024.0	-5822.0
8	15	41	23	475	20.0	-152926.0	1025.0	-5585.0
8	15	41	23	475	21.0	-146099.0	1011.0	-5823.0
8	15	41	23	476	22.0	-140918.0	999.0	-5670.0
8	15	41	23	477	23.0	-138284.0	1006.0	-5547.0
8	15	41	23	477	24.0	-138042.0	1008.0	-5613.0
8	15	41	23	478	25.0	-139598.0	999.0	-5953.0
8	15	41	23	479	26.0	-144057.0	1009.0	-5934.0
8	15	41	23	479	27.0	-147844.0	1002.0	-5765.0
8	15	41	23	480	28.0	-153722.0	996.0	-6055.0
8	15	41	23	481	29.0	-160691.0	1001.0	-6361.0
8	15	41	23	481	30.0	-168391.0	1004.0	-5863.0
8	15	41	23	482	31.0	-176419.0	988.0	-6149.0
8	15	41	23	483	32.0	-184100.0	978.0	-6384.0
8	15	41	23	483	33.0	-190972.0	987.0	-6442.0
8	15	41	23	484	34.0	-196872.0	982.0	-6277.0
8	15	41	23	485	35.0	-201089.0	969.0	-6479.0
8	15	41	23	485	36.0	-203793.0	954.0	-6637.0
8	15	41	23	486	37.0	-204736.0	948.0	-6874.0
8	15	41	23	497	38.0	-204076.0	963.0	-6892.0
8	15	41	23	497	39.0	-202033.0	958.0	-6828.0
8	15	41	23	498	40.0	-198562.0	936.0	-7153.0
8	15	41	23	499	41.0	-194948.0	920.0	-7114.0
8	15	41	23	500	42.0	-191332.0	931.0	-6978.0
8	15	41	23	500	43.0	-188806.0	907.0	-7304.0
8	15	41	23	501	44.0	-187475.0	926.0	-7373.0
8	15	41	23	502	45.0	-187032.0	914.0	-7301.0
8	15	41	23	516	46.0	-187604.0	883.0	-7399.0
8	15	41	23	517	47.0	-188621.0	888.0	-7650.0
8	15	41	23	517	48.0	-190504.0	895.0	-7200.0
8	15	41	23	518	49.0	-193081.0	873.0	-7094.0
8	15	41	23	519	50.0	-195725.0	861.0	-7589.0
8	15	41	23	519	51.0	-197583.0	860.0	-7344.0
8	15	41	23	520	52.0	-198911.0	834.0	-7169.0
8	15	41	23	538	53.0	-200009.0	829.0	-7515.0
8	15	41	23	539	54.0	-200368.0	826.0	-7912.0
8	15	41	23	540	55.0	-200546.0	816.0	-7791.0
8	15	41	23	540	56.0	-200260.0	823.0	-7931.0
8	15	41	23	541	57.0	-199711.0	818.0	-8290.0
8	15	41	23	542	58.0	-198942.0	787.0	-8273.0
8	15	41	23	543	59.0	-197614.0	788.0	-8342.0
8	15	41	23	543	60.0	-196149.0	777.0	-8524.0
8	15	41	23	544	61.0	-194368.0	757.0	-8364.0
8	15	41	23	545	62.0	-192990.0	740.0	-8407.0
8	15	41	23	545	63.0	-192184.0	733.0	-8775.0
8	15	41	23	546	64.0	-191948.0	733.0	-8963.0
8	15	41	23	547	65.0	-191877.0	728.0	-8839.0
8	15	41	23	547	66.0	-191236.0	714.0	-9212.0
8	15	41	23	548	67.0	-189539.0	706.0	-9564.0
8	15	41	23	548	68.0	-187601.0	679.0	-9849.0
8	15	41	23	587	69.0	-185719.0	680.0	-9935.0
8	15	41	23	588	70.0	-184717.0	668.0	-9830.0
8	15	41	23	588	71.0	-183746.0	655.0	-10049.0
8	15	41	23	589	72.0	-181996.0	641.0	-10243.0
8	15	41	23	590	73.0	-180468.0	642.0	-10028.0
8	15	41	23	591	74.0	-179061.0	643.0	-10583.0
8	15	41	23	591	75.0	-178459.0	624.0	-10736.0
8	15	41	23	592	76.0	-178189.0	629.0	-10636.0
8	15	41	23	593	77.0	-178118.0	633.0	-10762.0
8	15	41	23	594	78.0	-179167.0	624.0	-11211.0
8	15	41	23	594	79.0	-180431.0	613.0	-11134.0
8	15	41	23	595	80.0	-182346.0	618.0	-10876.0
8	15	41	23	596	81.0	-184302.0	610.0	-11029.0
8	15	41	23	596	82.0	-186177.0	614.0	-11108.0
8	15	41	23	597	83.0	-188267.0	624.0	-10984.0
8	15	41	23	598	89.0	-196509.0	655.0	-12067.0
8	15	41	23	598	90.0	-196789.0	669.0	-12050.0
8	15	41	23	599	91.0	-197166.0	704.0	-12230.0
8	15	41	23	600	92.0	-197734.0	711.0	-12196.0
8	15	41	23	611	93.0	-198721.0	723.0	-12208.0
8	15	41	23	616	94.0	-199877.0	724.0	-12326.0
8	15	41	23	619	95.0	-200807.0	754.0	-12413.0
8	15	41	23	621	96.0	-201419.0	766.0	-12772.0
8	15	41	23	622	97.0	-201642.0	796.0	-13240.0
8	15	41	23	623	98.0	-201937.0	821.0	-13240.0
8	15	41	23	623	99.0	-202001.0	859.0	-13301.0
8	15	41	23	624	100.0	-201559.0	873.0	-13608.0
8	15	41	23	624	101.0	-201485.0	903.0	-13312.0
8	15	41	23	625	102.0	-201425.0	936.0	-13121.0
8	15	41	23	625	103.0	-201171.0	960.0	-13027.0
8	15	41	23	626	104.0	-201081.0	991.0	-13332.0
8	15	41	23	626	105.0	-200576.0	1018.0	-13317.0
8	15	41	23	634	106.0	-199884.0	1045.0	-13335.0
8	15	41	23	634	107.0	-199582.0	1084.0	-13676.0
8	15	41	23	635	108.0	-199206.0	1119.0	-13317.0
8	15	41	23	635	109.0	-199447.0	1139.0	-13022.0
8	15	41	23	636	110.0	-199992.0	1172.0	-13061.0
8	15	41	23	637	111.0	-200733.0	1204.0	-12417.0
8	15	41	23	637	112.0	-201797.0	1238.0	-11751.0
8	15	41	23	657	113.0	-202564.0	1264.0	-11546.0
8	15	41	23	658	114.0	-203023.0	1293.0	-11718.0
8	15	41	23	658	115.0	-203211.0	1323.0	-11725.0
8	15	41	23	659	116.0	-203194.0	1369.0	-11501.0
8	15	41	23	660	117.0	-203485.0	1399.0	-11467.0
8	15	41	23	660	118.0	-203719.0	1432.0	-11305.0
8	15	41	23	661	119.0	-203772.0	1462.0	-10891.0
8	15	41	23	661	120.0	-203134.0	1474.0	-10838.0
8	15	41	23	662	121.0	-201857.0	1495.0	-10524.0
8	15	41	23	693	122.0	-199977.0	1527.0	-10342.0
8	15	41	23	693	123.0	-197406.0	1571.0	-10629.0
8	15	41	23	694	124.0	-195034.0	1606.0	-10389.0
8	15	41	23	694	125.0	-192884.0	1634.0	-9689.0
8	15	41	23	695	126.0	-191144.0	1659.0	-9659.0
8	15	41	23	696	127.0	-190424.0	1664.0	-9852.0
8	15	41	23	696	128.0	-190828.0	1686.0	-9481.0
8	15	41	23	697	129.0	-192129.0	1708.0	-9532.0
8	15	41	23	698	130.0	-194221.0	1711.0	-9455.0
8	15	41	23	698	131.0	-197232.0	1733.0	-9314.0
8	15	41	23	699	132.0	-200946.0	1761.0	-9134.0
8	15	41	23	699	133.0	-204951.0	1791.0	-8707.0
8	15	41	23	700	134.0	-209765.0	1801.0	-8924.0
8	15	41	23	701	135.0	-215154.0	1824.0	-9082.0
8	15	41	23	701	136.0	-220556.0	1831.0	-8803.0
8	15	41	23	702	137.0	-225976.0	1862.0	-8618.0
8	15	41	23	702	142.0	-221084.0	1878.0	-8871.0
8	15	41	23	703	143.0	-223122.0	1894.0	-8616.0
8	15	41	23	704	144.0	-225798.0	1919.0	-8532.0
8	15	41	23	712	145.0	-231013.0	1918.0	-8914.0
8	15	41	23	712	146.0	-238021.0	1931.0	-8992.0
8	15	41	23	713	147.0	-242414.0	1939.0	-8949.0
8	15	41	23	714	148.0	-239818.0	1960.0	-9452.0
8	15	41	23	735	149.0	-233230.0	1956.0	-9286.0
8	15	41	23	735	150.0	-225879.0	1943.0	-8870.0
8	15	41	23	736	151.0	-215662.0	1952.0	-8681.0
8	15	41	23	737	152.0	-203702.0	1981.0	-8748.0
8	15	41	23	737	153.0	-193377.0	1977.0	-8544.0
8	15	41	23	738	154.0	-186779.0	1984.0	-8536.0
8	15	41	23	739	155.0	-184254.0	1983.0	-8911.0
8	15	41	23	739	156.0	-183776.0	1989.0	-9087.0
8	15	41	23	740	157.0	-183486.0	1984.0	-9219.0
8	15	41	23	740	158.0	-183142.0	1978.0	-9840.0
8	15	41	23	741	159.0	-182446.0	1972.0	-10183.0
8	15	41	23	741	160.0	-181856.0	1979.0	-10265.0
8	15	41	23	742	161.0	-181606.0	1988.0	-10267.0
8	15	41	23	743	162.0	-181265.0	1991.0	-10041.0
8	15	41	23	743	163.0	-180759.0	1987.0	-10011.0
8	15	41	23	744	164.0	-179688.0	1981.0	-10034.0
8	15	41	23	759	165.0	-178467.0	2000.0	-9843.0
8	15	41	23	759	166.0	-177904.0	2001.0	-10152.0
8	15	41	23	760	167.0	-177884.0	2009.0	-9904.0
8	15	41	23	761	168.0	-178543.0	2023.0	-9881.0
8	15	41	23	761	169.0	-179326.0	2011.0	-10096.0
8	15	41	23	762	170.0	-179984.0	2007.0	-10277.0
8	15	41	23	762	171.0	-180417.0	1991.0	-9721.0
8	15	41	23	763	172.0	-179921.0	1993.0	-9417.0
8	15	41	23	782	173.0	-178974.0	2019.0	-10046.0
8	15	41	23	782	174.0	-178140.0	2006.0	-9786.0
8	15	41	23	783	175.0	-177134.0	2004.0	-9254.0
8	15	41	23	784	176.0	-176461.0	1996.0	-9425.0
8	15	41	23	784	177.0	-176292.0	1987.0	-9865.0
8	15	41	23	785	178.0	-176177.0	1991.0	-10304.0
8	15	41	23	785	179.0	-176430.0	1991.0	-9887.0
8	15	41	23	786	180.0	-177043.0	1988.0	-9978.0
8	15	41	23	804	181.0	-177724.0	1979.0	-10087.0
8	15	41	23	827	182.0	-178555.0	1978.0	-10395.0
8	15	41	23	828	183.0	-179452.0	1963.0	-10539.0
8	15	41	23	828	184.0	-180542.0	1962.0	-10431.0
8	15	41	23	829	185.0	-181861.0	1951.0	-10142.0
8	15	41	23	830	186.0	-183579.0	1938.0	-10022.0
8	15	41	23	830	187.0	-185721.0	1948.0	-9967.0
8	15	41	23	831	188.0	-187535.0	1956.0	-10185.0
8	15	41	23	831	189.0	-189104.0	1941.0	-9716.0
8	15	41	23	832	190.0	-191002.0	1947.0	-9599.0
8	15	41	23	832	191.0	-192867.0	1942.0	-9102.0
8	15	41	23	833	192.0	-194586.0	1916.0	-9099.0
8	15	41	23	834	193.0	-196331.0	1903.0	-9347.0
8	15	41	23	834	194.0	-198059.0	1903.0	-9336.0
8	15	41	23	835	195.0	-200070.0	1883.0	-9525.0
8	15	41	23	835	196.0	-201701.0	1891.0	-9279.0
8	15	41	23	836	197.0	-202789.0	1898.0	-9217.0
8	15	41	23	836	201.0	-205673.0	1888.0	-9102.0
8	15	41	23	837	202.0	-206192.0	1863.0	-9434.0
8	15	41	23	837	203.0	-206568.0	1868.0	-9419.0
8	15	41	23	838	204.0	-207111.0	1871.0	-9517.0
8	15	41	23	839	205.0	-207716.0	1854.0	-10009.0
8	15	41	23	839	206.0	-208319.0	1855.0	-9572.0
8	15	41	23	840	207.0	-208805.0	1850.0	-9351.0
8	15	41	23	840	208.0	-209573.0	1845.0	-9617.0
8	15	41	23	841	209.0	-210460.0	1829.0	-9926.0
8	15	41	23	842	210.0	-211234.0	1821.0	-9659.0
8	15	41	23	842	211.0	-212478.0	1813.0	-9834.0
8	15	41	23	843	212.0	-213521.0	1813.0	-10273.0
8	15	41	23	843	213.0	-214296.0	1814.0	-10191.0
8	15	41	23	844	214.0	-215031.0	1799.0	-10216.0
8	15	41	23	845	215.0	-215896.0	1806.0	-10286.0
8	15	41	23	845	216.0	-216946.0	1801.0	-10261.0
8	15	41	23	846	217.0	-218011.0	1778.0	-10342.0
8	15	41	23	857	218.0	-219826.0	1783.0	-10586.0
8	15	41	23	857	219.0	-221927.0	1794.0	-10611.0
8	15	41	23	858	220.0	-223927.0	1781.0	-10481.0
8	15	41	23	858	221.0	-226272.0	1768.0	-10522.0
8	15	41	23	859	222.0	-228499.0	1763.0	-10331.0
8	15	41	23	860	223.0	-230358.0	1773.0	-10622.0
8	15	41	23	860	224.0	-231971.0	1763.0	-10920.0
8	15	41	23	878	225.0	-232954.0	1763.0	-10742.0
8	15	41	23	879	226.0	-233638.0	1772.0	-10794.0
8	15	41	23	879	227.0	-233982.0	1756.0	-10544.0
8	15	41	23	949	228.0	-234220.0	1744.0	-10376.0
8	15	41	23	949	229.0	-234229.0	1746.0	-10441.0
8	15	41	23	950	230.0	-233601.0	1747.0	-10766.0
8	15	41	23	951	231.0	-232862.0	1735.0	-10605.0
8	15	41	23	951	232.0	-231671.0	1705.0	-10323.0
8	15	41	23	953	233.0	-230047.0	1719.0	-10693.0
8	15	41	23	954	234.0	-228499.0	1715.0	-10559.0
8	15	41	23	954	235.0	-226647.0	1739.0	-10610.0
8	15	41	23	955	236.0	-224258.0	1748.0	-10764.0
8	15	41	23	956	237.0	-221965.0	1750.0	-10812.0
8	15	41	23	956	238.0	-218982.0	1736.0	-10945.0
8	15	41	23	957	239.0	-215654.0	1716.0	-10854.0
8	15	41	23	957	240.0	-212843.0	1729.0	-10783.0
8	15	41	23	958	241.0	-209769.0	1719.0	-10604.0
8	15	41	23	959	242.0	-206757.0	1713.0	-10838.0
8	15	41	23	959	12.0	-209707.0	1744.0	-12238.0
8	15	41	23	960	13.0	-209104.0	1739.0	-12624.0
8	15	41	23	960	14.0	-207894.0	1731.0	-12764.0
8	15	41	23	961	15.0	-206296.0	1732.0	-12776.0
8	15	41	23	961	16.0	-205710.0	1723.0	-12870.0
8	15	41	23	962	17.0	-204731.0	1723.0	-12839.0
8	15	41	23	963	18.0	-204139.0	1718.0	-13056.0
8	15	41	23	963	19.0	-203414.0	1718.0	-13118.0
8	15	41	23	964	20.0	-202830.0	1713.0	-13191.0
8	15	41	23	976	21.0	-202324.0	1699.0	-13399.0
8	15	41	23	995	22.0	-201527.0	1704.0	-13357.0
8	15	41	23	996	23.0	-201401.0	1692.0	-13764.0
8	15	41	23	997	24.0	-201267.0	1673.0	-13771.0
8	15	41	23	997	25.0	-201439.0	1681.0	-13592.0
8	15	41	23	998	26.0	-200557.0	1683.0	-13531.0
8	15	41	23	999	27.0	-200398.0	1688.0	-13973.0
8	15	41	23	999	28.0	-200770.0	1675.0	-14092.0
8	15	41	24	18	29.0	-200851.0	1684.0	-14003.0
8	15	41	24	19	30.0	-202042.0	1683.0	-14090.0
8	15	41	24	19	31.0	-202235.0	1668.0	-14140.0
8	15	41	24	20	32.0	-202164.0	1652.0	-14244.0
8	15	41	24	20	33.0	-202312.0	1654.0	-14291.0
8	15	41	24	21	34.0	-202839.0	1655.0	-14239.0
8	15	41	24	22	35.0	-203943.0	1650.0	-14078.0
8	15	41	24	22	36.0	-204891.0	1615.0	-14275.0
8	15	41	24	23	37.0	-205474.0	1612.0	-14476.0
8	15	41	24	23	38.0	-205502.0	1583.0	-14299.0
8	15	41	24	24	39.0	-205152.0	1576.0	-14022.0
8	15	41	24	24	40.0	-205197.0	1549.0	-14292.0
8	15	41	24	41	41.0	-204687.0	1549.0	-14658.0
8	15	41	24	42	42.0	-204092.0	1542.0	-14643.0
8	15	41	24	43	43.0	-203208.0	1525.0	-14696.0
8	15	41	24	43	44.0	-202147.0	1528.0	-14759.0
8	15	41	24	44	45.0	-201637.0	1521.0	-14874.0
8	15	41	24	44	46.0	-201317.0	1511.0	-15032.0
8	15	41	24	45	47.0	-201727.0	1506.0	-15074.0
8	15	41	24	45	48.0	-202292.0	1505.0	-15121.0
8	15	41	24	46	49.0	-202748.0	1481.0	-15202.0
8	15	41	24	46	50.0	-203279.0	1458.0	-15491.0
8	15	41	24	64	51.0	-204589.0	1450.0	-15286.0
8	15	41	24	65	52.0	-205907.0	1441.0	-15447.0
8	15	41	24	66	53.0	-206926.0	1422.0	-15199.0
8	15	41	24	66	54.0	-207500.0	1424.0	-14894.0
8	15	41	24	67	55.0	-207779.0	1404.0	-14738.0
8	15	41	24	68	57.0	-208276.0	1378.0	-14805.0
8	15	41	24	68	58.0	-208001.0	1344.0	-14587.0
8	15	41	24	69	59.0	-207047.0	1345.0	-15003.0
8	15	41	24	69	60.0	-205421.0	1353.0	-15269.0
8	15	41	24	70	61.0	-203388.0	1346.0	-15036.0
8	15	41	24	70	62.0	-200765.0	1321.0	-15442.0
8	15	41	24	71	63.0	-199064.0	1306.0	-15172.0
8	15	41	24	72	64.0	-197348.0	1292.0	-14885.0
8	15	41	24	72	65.0	-194707.0	1280.0	-14930.0
8	15	41	24	73	66.0	-192151.0	1274.0	-15121.0
8	15	41	24	73	67.0	-190048.0	1258.0	-15040.0
8	15	41	24	74	68.0	-186157.0	1229.0	-15319.0
8	15	41	24	74	69.0	-183931.0	1212.0	-15491.0
8	15	41	24	75	70.0	-184214.0	1203.0	-15334.0
8	15	41	24	75	71.0	-185463.0	1213.0	-15327.0
8	15	41	24	76	72.0	-185704.0	1214.0	-15480.0
8	15	41	24	93	73.0	-184777.0	1196.0	-15317.0
8	15	41	24	93	74.0	-182929.0	1179.0	-15024.0
8	15	41	24	94	75.0	-180368.0	1148.0	-15204.0
8	15	41	24	94	76.0	-177412.0	1134.0	-15134.0
8	15	41	24	95	77.0	-174662.0	1136.0	-15512.0
8	15	41	24	96	78.0	-173057.0	1116.0	-15799.0
8	15	41	24	96	79.0	-173044.0	1127.0	-15511.0
8	15	41	24	98	80.0	-174623.0	1118.0	-15507.0
8	15	41	24	98	81.0	-177389.0	1087.0	-15739.0
8	15	41	24	99	82.0	-180912.0	1062.0	-15606.0
8	15	41	24	100	83.0	-184901.0	1039.0	-15797.0
8	15	41	24	100	84.0	-189122.0	1040.0	-16141.0
8	15	41	24	101	85.0	-193831.0	1048.0	-16102.0
8	15	41	24	101	86.0	-197855.0	1038.0	-15852.0
8	15	41	24	102	87.0	-200716.0	1013.0	-16391.0
8	15	41	24	102	88.0	-202482.0	994.0	-16396.0
8	15	41	24	128	89.0	-203124.0	987.0	-16061.0
8	15	41	24	129	90.0	-203437.0	968.0	-16205.0
8	15	41	24	142	91.0	-203088.0	961.0	-16329.0
8	15	41	24	143	92.0	-201882.0	954.0	-16059.0
8	15	41	24	144	93.0	-200706.0	948.0	-15828.0
8	15	41	24	144	94.0	-200655.0	942.0	-16153.0
8	15	41	24	145	95.0	-201057.0	922.0	-16082.0
8	15	41	24	145	96.0	-201751.0	896.0	-15861.0
8	15	41	24	161	97.0	-203241.0	887.0	-15847.0
8	15	41	24	161	98.0	-204849.0	861.0	-15573.0
8	15	41	24	162	99.0	-206024.0	861.0	-15266.0
8	15	41	24	163	100.0	-206607.0	831.0	-15477.0
8	15	41	24	163	101.0	-207053.0	827.0	-15556.0
8	15	41	24	164	102.0	-207497.0	814.0	-15631.0
8	15	41	24	165	103.0	-208005.0	789.0	-15675.0
8	15	41	24	165	104.0	-208046.0	783.0	-15717.0
8	15	41	24	166	105.0	-208069.0	783.0	-15479.0
8	15	41	24	167	106.0	-208292.0	769.0	-15804.0
8	15	41	24	167	110.0	-208753.0	707.0	-15666.0
8	15	41	24	168	111.0	-208733.0	685.0	-15116.0
8	15	41	24	168	112.0	-208786.0	683.0	-15174.0
8	15	41	24	169	113.0	-209420.0	668.0	-15424.0
8	15	41	24	169	114.0	-210334.0	641.0	-14884.0
8	15	41	24	170	115.0	-210869.0	631.0	-15029.0
8	15	41	24	171	118.0	-216792.0	594.0	-15397.0
8	15	41	24	171	119.0	-218298.0	571.0	-15353.0
8	15	41	24	172	120.0	-219434.0	539.0	-15227.0
8	15	41	24	187	121.0	-220613.0	541.0	-15017.0
8	15	41	24	187	122.0	-221281.0	509.0	-15241.0
8	15	41	24	188	123.0	-221557.0	486.0	-15030.0
8	15	41	24	189	124.0	-220734.0	491.0	-14721.0
8	15	41	24	189	125.0	-219286.0	476.0	-14907.0
8	15	41	24	190	126.0	-218006.0	459.0	-14911.0
8	15	41	24	190	127.0	-216478.0	451.0	-14671.0
8	15	41	24	209	128.0	-214669.0	442.0	-14534.0
8	15	41	24	210	129.0	-212644.0	436.0	-14749.0
8	15	41	24	210	130.0	-210335.0	421.0	-14551.0
8	15	41	24	211	131.0	-207735.0	407.0	-14741.0
8	15	41	24	211	132.0	-205197.0	387.0	-14912.0
8	15	41	24	212	133.0	-202943.0	373.0	-14770.0
8	15	41	24	213	134.0	-201401.0	370.0	-14991.0
8	15	41	24	213	135.0	-200194.0	355.0	-15204.0
8	15	41	24	214	136.0	-198540.0	343.0	-14959.0
8	15	41	24	214	137.0	-196744.0	317.0	-15064.0
8	15	41	24	215	138.0	-194706.0	314.0	-14953.0
8	15	41	24	215	139.0	-192371.0	296.0	-15002.0
8	15	41	24	216	140.0	-190109.0	284.0	-15086.0
8	15	41	24	217	141.0	-187966.0	258.0	-15221.0
8	15	41	24	217	142.0	-186281.0	249.0	-15192.0
8	15	41	24	218	143.0	-184794.0	249.0	-15004.0
8	15	41	24	218	144.0	-183484.0	234.0	-15061.0
8	15	41	24	263	145.0	-182928.0	218.0	-14854.0
8	15	41	24	264	146.0	-182652.0	215.0	-14387.0
8	15	41	24	265	147.0	-183095.0	204.0	-14861.0
8	15	41	24	265	148.0	-183711.0	181.0	-15384.0
8	15	41	24	266	149.0	-184231.0	156.0	-14827.0
8	15	41	24	267	150.0	-184622.0	149.0	-14979.0
8	15	41	24	268	151.0	-185277.0	153.0	-15396.0
8	15	41	24	269	152.0	-185734.0	137.0	-15204.0
8	15	41	24	269	153.0	-186289.0	122.0	-15004.0
8	15	41	24	270	154.0	-186847.0	105.0	-14987.0
8	15	41	24	270	155.0	-187214.0	106.0	-15186.0
8	15	41	24	271	156.0	-187796.0	102.0	-15172.0
8	15	41	24	272	157.0	-188834.0	98.0	-15439.0
8	15	41	24	272	158.0	-189896.0	79.0	-15346.0
8	15	41	24	273	159.0	-190836.0	69.0	-15255.0
8	15	41	24	273	170.0	-185183.0	-46.0	-13511.0
8	15	41	24	274	171.0	-182102.0	-72.0	-12784.0
8	15	41	24	275	172.0	-179044.0	-74.0	-12778.0
8	15	41	24	275	173.0	-175606.0	-83.0	-12935.0
8	15	41	24	276	174.0	-171742.0	-93.0	-12994.0
8	15	41	24	276	175.0	-167989.0	-106.0	-14616.0
8	15	41	24	277	176.0	-164247.0	-106.0	-17574.0
8	15	41	24	278	177.0	-160734.0	-104.0	-21042.0
8	15	41	24	293	178.0	-157907.0	-132.0	-25082.0
8	15	41	24	293	179.0	-156211.0	-134.0	-29962.0
8	15	41	24	294	180.0	-155640.0	-127.0	-33880.0
8	15	41	24	295	181.0	-156216.0	-148.0	-36854.0
8	15	41	24	295	182.0	-158206.0	-158.0	-41600.0
8	15	41	24	296	183.0	-160665.0	-154.0	-47759.0
8	15	41	24	297	184.0	-163109.0	-163.0	-54837.0
8	15	41	24	297	185.0	-164659.0	-182.0	-62831.0
8	15	41	24	298	186.0	-164983.0	-194.0	-70603.0
8	15	41	24	309	187.0	-163712.0	-172.0	-77140.0
8	15	41	24	309	188.0	-161252.0	-175.0	-81342.0
8	15	41	24	310	189.0	-158142.0	-201.0	-82763.0
8	15	41	24	311	190.0	-154964.0	-212.0	-81363.0
8	15	41	24	311	191.0	-152226.0	-226.0	-75349.0
8	15	41	24	312	192.0	-150563.0	-231.0	-65670.0
8	15	41	24	312	193.0	-150306.0	-238.0	-53271.0
8	15	41	24	331	194.0	-150623.0	-237.0	-38664.0
8	15	41	24	332	195.0	-151274.0	-244.0	-26333.0
8	15	41	24	333	196.0	-150019.0	-247.0	-16157.0
8	15	41	24	333	197.0	-144285.0	-241.0	-12267.0
8	15	41	24	334	198.0	-136876.0	-233.0	-12798.0
8	15	41	24	335	199.0	-128011.0	-242.0	-12719.0
8	15	41	24	335	200.0	-121071.0	-262.0	-12770.0
8	15	41	24	357	201.0	-116805.0	-276.0	-13389.0
8	15	41	24	358	202.0	-119108.0	-274.0	-13649.0
8	15	41	24	359	203.0	-132546.0	-279.0	-13009.0
8	15	41	24	380	204.0	-155071.0	-282.0	-13054.0
8	15	41	24	381	205.0	-176820.0	-277.0	-12761.0
8	15	41	24	382	206.0	-191709.0	-287.0	-12610.0
8	15	41	24	382	207.0	-198438.0	-286.0	-13217.0
8	15	41	24	383	208.0	-197219.0	-278.0	-13665.0
8	15	41	24	384	209.0	-195537.0	-286.0	-13487.0
8	15	41	24	384	210.0	-200949.0	-286.0	-13663.0
8	15	41	24	385	211.0	-208764.0	-285.0	-13858.0
8	15	41	24	386	212.0	-211063.0	-296.0	-14034.0
8	15	41	24	386	213.0	-207459.0	-312.0	-14288.0
8	15	41	24	387	214.0	-200654.0	-289.0	-14490.0
8	15	41	24	387	215.0	-191319.0	-281.0	-14531.0
8	15	41	24	388	216.0	-182952.0	-281.0	-14368.0
8	15	41	24	388	217.0	-175812.0	-268.0	-14552.0
8	15	41	24	389	218.0	-170187.0	-269.0	-14687.0
8	15	41	24	390	222.0	-181760.0	-274.0	-14853.0
8	15	41	24	390	223.0	-187728.0	-273.0	-14542.0
8	15	41	24	391	224.0	-192532.0	-267.0	-14981.0
8	15	41	24	391	225.0	-196542.0	-273.0	-14755.0
8	15	41	24	392	226.0	-201172.0	-283.0	-14673.0
8	15	41	24	392	227.0	-204702.0	-275.0	-15006.0
8	15	41	24	393	228.0	-205906.0	-256.0	-15036.0
8	15	41	24	393	229.0	-203560.0	-256.0	-15161.0
8	15	41	24	404	230.0	-198756.0	-259.0	-14907.0
8	15	41	24	405	231.0	-192349.0	-272.0	-14508.0
8	15	41	24	406	232.0	-185386.0	-264.0	-14737.0
8	15	41	24	406	233.0	-178000.0	-256.0	-14762.0
8	15	41	24	407	234.0	-171051.0	-272.0	-14057.0
8	15	41	24	407	235.0	-165440.0	-259.0	-13927.0
8	15	41	24	408	236.0	-161386.0	-232.0	-14216.0
8	15	41	24	409	237.0	-158742.0	-237.0	-14646.0
8	15	41	24	409	238.0	-158027.0	-234.0	-14603.0
8	15	41	24	410	239.0	-158901.0	-214.0	-14801.0
8	15	41	24	428	240.0	-161131.0	-221.0	-14496.0
8	15	41	24	428	241.0	-165499.0	-214.0	-14549.0
8	15	41	24	429	242.0	-171398.0	-226.0	-14549.0
8	15	41	24	430	243.0	-178231.0	-240.0	-14657.0
8	15	41	24	430	244.0	-185202.0	-236.0	-14597.0
8	15	41	24	431	245.0	-191701.0	-226.0	-14302.0
8	15	41	24	432	246.0	-196788.0	-246.0	-14437.0
8	15	41	24	432	247.0	-199951.0	-256.0	-14570.0
8	15	41	24	433	248.0	-201671.0	-245.0	-14624.0
8	15	41	24	434	249.0	-202241.0	-249.0	-14736.0
8	15	41	24	434	250.0	-201172.0	-261.0	-14582.0
8	15	41	24	435	251.0	-198715.0	-274.0	-14236.0
8	15	41	24	435	252.0	-195212.0	-288.0	-14743.0
8	15	41	24	436	253.0	-191459.0	-277.0	-14672.0
8	15	41	24	472	254.0	-187759.0	-287.0	-14774.0
8	15	41	24	472	255.0	-183870.0	-298.0	-14864.0
8	15	41	24	473	0.0	-179997.0	-301.0	-14539.0
8	15	41	24	474	1.0	-176677.0	-314.0	-14714.0
8	15	41	24	475	2.0	-173581.0	-332.0	-15021.0
8	15	41	24	475	3.0	-171506.0	-330.0	-14599.0
8	15	41	24	476	4.0	-170634.0	-335.0	-14519.0
8	15	41	24	477	5.0	-170197.0	-352.0	-14938.0
8	15	41	24	477	6.0	-169608.0	-362.0	-15031.0
8	15	41	24	478	7.0	-168857.0	-362.0	-14951.0
8	15	41	24	479	8.0	-168252.0	-381.0	-15201.0
8	15	41	24	479	9.0	-168057.0	-380.0	-15034.0
8	15	41	24	480	10.0	-168362.0	-391.0	-14900.0
8	15	41	24	481	11.0	-168596.0	-419.0	-15211.0
8	15	41	24	482	12.0	-168662.0	-427.0	-15381.0
8	15	41	24	482	18.0	-171064.0	-509.0	-15668.0
8	15	41	24	483	19.0	-170124.0	-525.0	-15729.0
8	15	41	24	483	20.0	-169257.0	-522.0	-15959.0
8	15	41	24	484	21.0	-169052.0	-526.0	-15932.0
8	15	41	24	493	22.0	-168237.0	-552.0	-16174.0
8	15	41	24	494	23.0	-167111.0	-566.0	-16319.0
8	15	41	24	494	24.0	-166256.0	-566.0	-16187.0
8	15	41	24	495	25.0	-165759.0	-597.0	-16262.0
8	15	41	24	496	26.0	-165614.0	-619.0	-16627.0
8	15	41	24	517	27.0	-165344.0	-627.0	-16638.0
8	15	41	24	518	28.0	-165349.0	-640.0	-17005.0
8	15	41	24	518	29.0	-165474.0	-641.0	-17214.0
8	15	41	24	519	30.0	-165863.0	-654.0	-17467.0
8	15	41	24	519	31.0	-166215.0	-668.0	-17802.0
8	15	41	24	520	32.0	-166181.0	-676.0	-17744.0
8	15	41	24	520	33.0	-165883.0	-682.0	-17954.0
8	15	41	24	521	34.0	-164503.0	-698.0	-18566.0
8	15	41	24	522	35.0	-162990.0	-716.0	-18483.0
8	15	41	24	522	36.0	-161877.0	-707.0	-18441.0
8	15	41	24	523	37.0	-161121.0	-730.0	-18897.0
8	15	41	24	523	38.0	-159872.0	-726.0	-18806.0
8	15	41	24	524	39.0	-158051.0	-740.0	-18591.0
8	15	41	24	524	40.0	-156762.0	-748.0	-19006.0
8	15	41	24	525	41.0	-155971.0	-727.0	-19172.0
8	15	41	24	541	42.0	-155889.0	-748.0	-19238.0
8	15	41	24	541	43.0	-155814.0	-754.0	-19609.0
8	15	41	24	542	44.0	-156791.0	-721.0	-19721.0
8	15	41	24	543	45.0	-158625.0	-734.0	-19628.0
8	15	41	24	543	46.0	-160719.0	-741.0	-19797.0
8	15	41	24	544	47.0	-162865.0	-742.0	-20054.0
8	15	41	24	544	48.0	-164429.0	-733.0	-19991.0
8	15	41	24	545	49.0	-165538.0	-732.0	-20053.0
8	15	41	24	545	50.0	-166276.0	-704.0	-20142.0
8	15	41	24	577	51.0	-166562.0	-705.0	-19870.0
8	15	41	24	578	52.0	-166752.0	-696.0	-19874.0
8	15	41	24	578	53.0	-166872.0	-671.0	-19917.0
8	15	41	24	579	54.0	-167129.0	-646.0	-20221.0
8	15	41	24	580	55.0	-167320.0	-629.0	-20506.0
8	15	41	24	580	56.0	-167636.0	-618.0	-20431.0
8	15	41	24	581	57.0	-167764.0	-597.0	-20304.0
8	15	41	24	581	58.0	-168312.0	-576.0	-20536.0
8	15	41	24	582	59.0	-168936.0	-561.0	-20614.0
8	15	41	24	583	60.0	-170268.0	-525.0	-20151.0
8	15	41	24	583	61.0	-172372.0	-478.0	-20319.0
8	15	41	24	584	62.0	-173806.0	-455.0	-20399.0
8	15	41	24	585	63.0	-175634.0	-427.0	-20125.0
8	15	41	24	585	64.0	-177713.0	-399.0	-19894.0
8	15	41	24	586	65.0	-179782.0	-382.0	-19769.0
8	15	41	24	586	66.0	-182125.0	-349.0	-19569.0
8	15	41	24	587	71.0	-191442.0	-208.0	-17964.0
8	15	41	24	587	72.0	-192085.0	-179.0	-17720.0
8	15	41	24	588	73.0	-192367.0	-160.0	-17250.0
8	15	41	24	601	74.0	-191959.0	-141.0	-16764.0
8	15	41	24	602	75.0	-191779.0	-106.0	-16844.0
8	15	41	24	602	76.0	-191661.0	-98.0	-16454.0
8	15	41	24	603	77.0	-191266.0	-67.0	-15843.0
8	15	41	24	604	78.0	-190875.0	-46.0	-15339.0
8	15	41	24	604	79.0	-190228.0	-29.0	-15251.0
8	15	41	24	624	80.0	-189291.0	-16.0	-15173.0
8	15	41	24	625	81.0	-189551.0	-4.0	-14919.0
8	15	41	24	625	82.0	-188527.0	19.0	-14504.0
8	15	41	24	626	83.0	-187486.0	51.0	-14178.0
8	15	41	24	627	84.0	-187519.0	63.0	-13842.0
8	15	41	24	627	85.0	-187583.0	61.0	-13541.0
8	15	41	24	628	86.0	-187419.0	91.0	-13245.0
8	15	41	24	628	87.0	-187736.0	111.0	-13138.0
8	15	41	24	629	88.0	-188977.0	126.0	-12965.0
8	15	41	24	630	89.0	-191142.0	131.0	-12737.0
8	15	41	24	630	90.0	-193350.0	161.0	-12647.0
8	15	41	24	631	91.0	-196494.0	174.0	-12598.0
8	15	41	24	631	92.0	-200392.0	177.0	-12521.0
8	15	41	24	632	93.0	-204614.0	184.0	-12309.0
8	15	41	24	632	94.0	-208743.0	181.0	-12506.0
8	15	41	24	649	95.0	-212846.0	183.0	-12157.0
8	15	41	24	649	96.0	-214214.0	200.0	-12031.0
8	15	41	24	650	97.0	-213374.0	193.0	-11889.0
8	15	41	24	651	98.0	-213924.0	209.0	-11731.0
8	15	41	24	651	99.0	-210035.0	227.0	-11669.0
8	15	41	24	652	100.0	-210991.0	234.0	-12002.0
8	15	41	24	653	101.0	-217321.0	221.0	-11970.0
8	15	41	24	653	102.0	-223336.0	213.0	-11810.0
8	15	41	24	654	103.0	-231472.0	223.0	-11805.0
8	15	41	24	654	104.0	-241181.0	228.0	-11799.0
8	15	41	24	655	105.0	-248127.0	216.0	-11629.0
8	15	41	24	655	106.0	-247927.0	216.0	-11297.0
8	15	41	24	656	107.0	-243712.0	212.0	-11238.0
8	15	41	24	656	108.0	-236682.0	206.0	-11239.0
8	15	41	24	657	109.0	-226027.0	199.0	-11072.0
8	15	41	24	696	110.0	-213671.0	211.0	-11433.0
8	15	41	24	697	111.0	-203452.0	200.0	-11428.0
8	15	41	24	698	112.0	-197444.0	198.0	-11556.0
8	15	41	24	698	113.0	-195509.0	217.0	-11385.0
8	15	41	24	699	114.0	-194986.0	211.0	-11184.0
8	15	41	24	700	115.0	-195491.0	204.0	-11069.0
8	15	41	24	700	116.0	-195777.0	192.0	-10996.0
8	15	41	24	701	117.0	-195949.0	194.0	-10925.0
8	15	41	24	701	118.0	-195616.0	191.0	-10777.0
8	15	41	24	702	119.0	-195037.0	198.0	-10997.0
8	15	41	24	703	120.0	-194456.0	186.0	-10938.0
8	15	41	24	703	121.0	-193081.0	176.0	-10745.0
8	15	41	24	704	122.0	-189911.0	169.0	-11146.0
8	15	41	24	704	123.0	-185023.0	164.0	-11142.0
8	15	41	24	705	124.0	-179279.0	146.0	-10856.0
8	15	41	24	705	131.0	-163936.0	103.0	-10182.0
8	15	41	24	706	132.0	-163609.0	101.0	-10664.0
8	15	41	24	707	133.0	-164581.0	81.0	-10377.0
8	15	41	24	707	134.0	-165581.0	68.0	-10353.0
8	15	41	24	717	135.0	-166384.0	56.0	-10617.0
8	15	41	24	718	136.0	-167354.0	52.0	-10453.0
8	15	41	24	718	137.0	-168022.0	34.0	-10306.0
8	15	41	24	719	138.0	-168148.0	4.0	-10694.0
8	15	41	24	742	139.0	-168366.0	-6.0	-10499.0
8	15	41	24	742	140.0	-168602.0	-3.0	-10118.0
8	15	41	24	743	141.0	-168507.0	13.0	-10269.0
8	15	41	24	744	142.0	-168424.0	13.0	-10389.0
8	15	41	24	744	143.0	-167924.0	-20.0	-10372.0
8	15	41	24	745	144.0	-167291.0	-22.0	-10474.0
8	15	41	24	746	145.0	-167027.0	-27.0	-10224.0
8	15	41	24	746	146.0	-166069.0	-36.0	-10210.0
8	15	41	24	747	147.0	-165437.0	-63.0	-10229.0
8	15	41	24	747	148.0	-165784.0	-71.0	-10082.0
8	15	41	24	748	149.0	-166175.0	-82.0	-9852.0
8	15	41	24	748	150.0	-166838.0	-92.0	-10049.0
8	15	41	24	749	151.0	-167771.0	-99.0	-10240.0
8	15	41	24	749	152.0	-168321.0	-100.0	-9995.0
